# N = 400
# (S0, I0, R0) = (101.25, 5, 293.75)
# (a, b, c) = (4, 1, 0.5)
# time, S, I, R
0	101.25	5	293.75
0.0025	101.604	5.00018	293.396
0.005	101.958	5.0004	293.042
0.0075	102.311	5.00067	292.688
0.01	102.664	5.00098	292.335
0.0125	103.017	5.00133	291.982
0.015	103.368	5.00173	291.63
0.0175	103.72	5.00218	291.278
0.02	104.071	5.00266	290.927
0.0225	104.421	5.00319	290.576
0.025	104.771	5.00377	290.225
0.0275	105.12	5.00439	289.875
0.03	105.469	5.00505	289.526
0.0325	105.818	5.00576	289.176
0.035	106.166	5.00651	288.828
0.0375	106.513	5.0073	288.479
0.04	106.86	5.00814	288.131
0.0425	107.207	5.00902	287.784
0.045	107.553	5.00994	287.437
0.0475	107.899	5.01091	287.091
0.05	108.244	5.01192	286.744
0.0525	108.588	5.01298	286.399
0.055	108.932	5.01407	286.053
0.0575	109.276	5.01522	285.709
0.06	109.619	5.0164	285.364
0.0625	109.962	5.01763	285.02
0.065	110.304	5.0189	284.677
0.0675	110.646	5.02021	284.334
0.07	110.987	5.02157	283.991
0.0725	111.328	5.02297	283.649
0.075	111.669	5.02442	283.307
0.0775	112.008	5.0259	282.966
0.08	112.348	5.02743	282.625
0.0825	112.687	5.02901	282.284
0.085	113.025	5.03062	281.944
0.0875	113.363	5.03228	281.605
0.09	113.701	5.03399	281.265
0.0925	114.038	5.03573	280.927
0.095	114.374	5.03752	280.588
0.0975	114.71	5.03935	280.25
0.1	115.046	5.04123	279.913
0.1025	115.381	5.04315	279.576
0.105	115.716	5.04511	279.239
0.1075	116.05	5.04711	278.903
0.11	116.384	5.04916	278.567
0.1125	116.717	5.05125	278.232
0.115	117.05	5.05338	277.897
0.1175	117.382	5.05555	277.562
0.12	117.714	5.05777	277.228
0.1225	118.046	5.06003	276.894
0.125	118.376	5.06234	276.561
0.1275	118.707	5.06469	276.228
0.13	119.037	5.06708	275.896
0.1325	119.367	5.06951	275.564
0.135	119.696	5.07198	275.232
0.1375	120.024	5.0745	274.901
0.14	120.352	5.07707	274.57
0.1425	120.68	5.07967	274.24
0.145	121.007	5.08232	273.91
0.1475	121.334	5.08501	273.581
0.15	121.66	5.08774	273.252
0.1525	121.986	5.09052	272.923
0.155	122.312	5.09334	272.595
0.1575	122.637	5.0962	272.267
0.16	122.961	5.09911	271.94
0.1625	123.285	5.10205	271.613
0.165	123.609	5.10505	271.286
0.1675	123.932	5.10808	270.96
0.17	124.255	5.11116	270.634
0.1725	124.577	5.11428	270.309
0.175	124.898	5.11744	269.984
0.1775	125.22	5.12065	269.66
0.18	125.541	5.1239	269.336
0.1825	125.861	5.12719	269.012
0.185	126.181	5.13053	268.689
0.1875	126.5	5.13391	268.366
0.19	126.819	5.13733	268.043
0.1925	127.138	5.1408	267.721
0.195	127.456	5.14431	267.4
0.1975	127.773	5.14786	267.079
0.2	128.091	5.15146	266.758
0.2025	128.407	5.1551	266.438
0.205	128.724	5.15878	266.118
0.2075	129.039	5.16251	265.798
0.21	129.355	5.16627	265.479
0.2125	129.67	5.17009	265.16
0.215	129.984	5.17394	264.842
0.2175	130.298	5.17784	264.524
0.22	130.612	5.18179	264.206
0.2225	130.925	5.18578	263.889
0.225	131.238	5.18981	263.573
0.2275	131.55	5.19388	263.256
0.23	131.862	5.198	262.94
0.2325	132.173	5.20216	262.625
0.235	132.484	5.20637	262.31
0.2375	132.794	5.21062	261.995
0.24	133.104	5.21491	261.681
0.2425	133.414	5.21925	261.367
0.245	133.723	5.22363	261.054
0.2475	134.031	5.22806	260.741
0.25	134.34	5.23253	260.428
0.2525	134.647	5.23704	260.116
0.255	134.955	5.2416	259.804
0.2575	135.261	5.2462	259.492
0.26	135.568	5.25085	259.181
0.2625	135.874	5.25554	258.871
0.265	136.179	5.26028	258.56
0.2675	136.484	5.26506	258.251
0.27	136.789	5.26988	257.941
0.2725	137.093	5.27475	257.632
0.275	137.397	5.27966	257.323
0.2775	137.7	5.28462	257.015
0.28	138.003	5.28963	256.707
0.2825	138.305	5.29467	256.4
0.285	138.607	5.29977	256.093
0.2875	138.909	5.3049	255.786
0.29	139.21	5.31009	255.48
0.2925	139.511	5.31532	255.174
0.295	139.811	5.32059	254.868
0.2975	140.111	5.32591	254.563
0.3	140.41	5.33127	254.259
0.3025	140.709	5.33668	253.954
0.305	141.007	5.34213	253.651
0.3075	141.305	5.34763	253.347
0.31	141.603	5.35318	253.044
0.3125	141.9	5.35877	252.741
0.315	142.197	5.3644	252.439
0.3175	142.493	5.37008	252.137
0.32	142.789	5.37581	251.835
0.3225	143.084	5.38159	251.534
0.325	143.379	5.38741	251.233
0.3275	143.674	5.39327	250.933
0.33	143.968	5.39918	250.633
0.3325	144.261	5.40514	250.333
0.335	144.555	5.41114	250.034
0.3375	144.847	5.4172	249.735
0.34	145.14	5.42329	249.437
0.3425	145.432	5.42944	249.139
0.345	145.723	5.43563	248.841
0.3475	146.014	5.44186	248.544
0.35	146.305	5.44815	248.247
0.3525	146.595	5.45448	247.951
0.355	146.885	5.46085	247.655
0.3575	147.174	5.46728	247.359
0.36	147.463	5.47375	247.063
0.3625	147.751	5.48027	246.769
0.365	148.039	5.48683	246.474
0.3675	148.327	5.49345	246.18
0.37	148.614	5.50011	245.886
0.3725	148.901	5.50682	245.593
0.375	149.187	5.51357	245.3
0.3775	149.473	5.52038	245.007
0.38	149.758	5.52723	244.715
0.3825	150.043	5.53413	244.423
0.385	150.328	5.54107	244.131
0.3875	150.612	5.54807	243.84
0.39	150.896	5.55511	243.549
0.3925	151.179	5.56221	243.259
0.395	151.462	5.56935	242.969
0.3975	151.744	5.57654	242.679
0.4	152.026	5.58378	242.39
0.4025	152.308	5.59106	242.101
0.405	152.589	5.5984	241.813
0.4075	152.869	5.60578	241.525
0.41	153.15	5.61322	241.237
0.4125	153.43	5.6207	240.95
0.415	153.709	5.62823	240.663
0.4175	153.988	5.63581	240.376
0.42	154.266	5.64345	240.09
0.4225	154.545	5.65113	239.804
0.425	154.822	5.65886	239.519
0.4275	155.1	5.66664	239.234
0.43	155.376	5.67447	238.949
0.4325	155.653	5.68235	238.665
0.435	155.929	5.69028	238.381
0.4375	156.204	5.69826	238.097
0.44	156.48	5.70629	237.814
0.4425	156.754	5.71438	237.531
0.445	157.029	5.72251	237.249
0.4475	157.303	5.73069	236.967
0.45	157.576	5.73893	236.685
0.4525	157.849	5.74722	236.404
0.455	158.122	5.75555	236.123
0.4575	158.394	5.76394	235.842
0.46	158.666	5.77238	235.562
0.4625	158.937	5.78087	235.282
0.465	159.208	5.78942	235.003
0.4675	159.478	5.79801	234.724
0.47	159.748	5.80666	234.445
0.4725	160.018	5.81536	234.167
0.475	160.287	5.82411	233.889
0.4775	160.556	5.83292	233.611
0.48	160.825	5.84177	233.334
0.4825	161.093	5.85068	233.057
0.485	161.36	5.85964	232.78
0.4875	161.627	5.86866	232.504
0.49	161.894	5.87773	232.228
0.4925	162.16	5.88685	231.953
0.495	162.426	5.89602	231.678
0.4975	162.692	5.90525	231.403
0.5	162.957	5.91454	231.129
0.5025	163.221	5.92387	230.855
0.505	163.485	5.93326	230.581
0.5075	163.749	5.9427	230.308
0.51	164.012	5.9522	230.035
0.5125	164.275	5.96176	229.763
0.515	164.538	5.97136	229.491
0.5175	164.8	5.98102	229.219
0.52	165.062	5.99074	228.948
0.5225	165.323	6.00051	228.677
0.525	165.584	6.01034	228.406
0.5275	165.844	6.02022	228.136
0.53	166.104	6.03016	227.866
0.5325	166.364	6.04015	227.596
0.535	166.623	6.0502	227.327
0.5375	166.882	6.06031	227.058
0.54	167.14	6.07047	226.79
0.5425	167.398	6.08069	226.521
0.545	167.655	6.09096	226.254
0.5475	167.912	6.10129	225.986
0.55	168.169	6.11168	225.719
0.5525	168.425	6.12212	225.453
0.555	168.681	6.13262	225.186
0.5575	168.937	6.14318	224.92
0.56	169.192	6.1538	224.655
0.5625	169.446	6.16447	224.389
0.565	169.7	6.1752	224.124
0.5675	169.954	6.18599	223.86
0.57	170.207	6.19684	223.596
0.5725	170.46	6.20774	223.332
0.575	170.713	6.21871	223.068
0.5775	170.965	6.22973	222.805
0.58	171.217	6.24081	222.543
0.5825	171.468	6.25195	222.28
0.585	171.719	6.26315	222.018
0.5875	171.969	6.27441	221.756
0.59	172.219	6.28573	221.495
0.5925	172.469	6.29711	221.234
0.595	172.718	6.30855	220.974
0.5975	172.967	6.32005	220.713
0.6	173.215	6.33161	220.453
0.6025	173.463	6.34323	220.194
0.605	173.711	6.35491	219.935
0.6075	173.958	6.36665	219.676
0.61	174.204	6.37845	219.417
0.6125	174.451	6.39031	219.159
0.615	174.697	6.40224	218.901
0.6175	174.942	6.41422	218.644
0.62	175.187	6.42627	218.387
0.6225	175.432	6.43838	218.13
0.625	175.676	6.45056	217.874
0.6275	175.92	6.46279	217.618
0.63	176.163	6.47509	217.362
0.6325	176.406	6.48745	217.107
0.635	176.649	6.49987	216.852
0.6375	176.891	6.51236	216.597
0.64	177.132	6.52491	216.343
0.6425	177.374	6.53752	216.089
0.645	177.615	6.5502	215.835
0.6475	177.855	6.56294	215.582
0.65	178.095	6.57575	215.329
0.6525	178.335	6.58862	215.076
0.655	178.574	6.60156	214.824
0.6575	178.813	6.61456	214.572
0.66	179.052	6.62762	214.321
0.6625	179.29	6.64075	214.07
0.665	179.527	6.65395	213.819
0.6675	179.764	6.66721	213.568
0.67	180.001	6.68054	213.318
0.6725	180.238	6.69393	213.068
0.675	180.474	6.70739	212.819
0.6775	180.709	6.72092	212.57
0.68	180.944	6.73452	212.321
0.6825	181.179	6.74818	212.073
0.685	181.413	6.76191	211.825
0.6875	181.647	6.7757	211.577
0.69	181.881	6.78957	211.33
0.6925	182.114	6.8035	211.083
0.695	182.346	6.8175	210.836
0.6975	182.579	6.83157	210.59
0.7	182.811	6.84571	210.344
0.7025	183.042	6.85991	210.098
0.705	183.273	6.87419	209.853
0.7075	183.504	6.88854	209.608
0.71	183.734	6.90295	209.363
0.7125	183.964	6.91744	209.119
0.715	184.193	6.93199	208.875
0.7175	184.422	6.94662	208.631
0.72	184.651	6.96132	208.388
0.7225	184.879	6.97608	208.145
0.725	185.106	6.99092	207.903
0.7275	185.334	7.00583	207.66
0.73	185.561	7.02081	207.419
0.7325	185.787	7.03587	207.177
0.735	186.013	7.05099	206.936
0.7375	186.239	7.06619	206.695
0.74	186.464	7.08146	206.454
0.7425	186.689	7.09681	206.214
0.745	186.913	7.11222	205.974
0.7475	187.137	7.12771	205.735
0.75	187.361	7.14328	205.496
0.7525	187.584	7.15891	205.257
0.755	187.807	7.17463	205.018
0.7575	188.029	7.19041	204.78
0.76	188.251	7.20628	204.542
0.7625	188.473	7.22221	204.305
0.765	188.694	7.23822	204.068
0.7675	188.915	7.25431	203.831
0.77	189.135	7.27048	203.594
0.7725	189.355	7.28671	203.358
0.775	189.575	7.30303	203.122
0.7775	189.794	7.31942	202.887
0.78	190.012	7.33589	202.652
0.7825	190.231	7.35244	202.417
0.785	190.448	7.36906	202.182
0.7875	190.666	7.38577	201.948
0.79	190.883	7.40255	201.715
0.7925	191.1	7.4194	201.481
0.795	191.316	7.43634	201.248
0.7975	191.532	7.45336	201.015
0.8	191.747	7.47045	200.783
0.8025	191.962	7.48763	200.551
0.805	192.176	7.50488	200.319
0.8075	192.391	7.52221	200.087
0.81	192.604	7.53963	199.856
0.8125	192.818	7.55712	199.625
0.815	193.03	7.5747	199.395
0.8175	193.243	7.59236	199.165
0.82	193.455	7.6101	198.935
0.8225	193.667	7.62792	198.705
0.825	193.878	7.64582	198.476
0.8275	194.089	7.66381	198.247
0.83	194.299	7.68188	198.019
0.8325	194.509	7.70003	197.791
0.835	194.719	7.71826	197.563
0.8375	194.928	7.73658	197.335
0.84	195.137	7.75498	197.108
0.8425	195.345	7.77347	196.881
0.845	195.553	7.79204	196.655
0.8475	195.76	7.8107	196.429
0.85	195.968	7.82944	196.203
0.8525	196.174	7.84827	195.977
0.855	196.381	7.86718	195.752
0.8575	196.586	7.88618	195.527
0.86	196.792	7.90526	195.303
0.8625	196.997	7.92444	195.079
0.865	197.202	7.9437	194.855
0.8675	197.406	7.96304	194.631
0.87	197.609	7.98248	194.408
0.8725	197.813	8.002	194.185
0.875	198.016	8.02161	193.963
0.8775	198.218	8.04131	193.74
0.88	198.42	8.0611	193.518
0.8825	198.622	8.08098	193.297
0.885	198.823	8.10095	193.076
0.8875	199.024	8.12101	192.855
0.89	199.225	8.14116	192.634
0.8925	199.425	8.1614	192.414
0.895	199.624	8.18173	192.194
0.8975	199.824	8.20216	191.974
0.9	200.022	8.22267	191.755
0.9025	200.221	8.24328	191.536
0.905	200.419	8.26398	191.317
0.9075	200.616	8.28477	191.099
0.91	200.813	8.30566	190.881
0.9125	201.01	8.32664	190.663
0.915	201.206	8.34771	190.446
0.9175	201.402	8.36888	190.229
0.92	201.598	8.39014	190.012
0.9225	201.793	8.4115	189.796
0.925	201.987	8.43296	189.58
0.9275	202.181	8.4545	189.364
0.93	202.375	8.47615	189.149
0.9325	202.569	8.49789	188.934
0.935	202.761	8.51973	188.719
0.9375	202.954	8.54167	188.504
0.94	203.146	8.5637	188.29
0.9425	203.338	8.58583	188.076
0.945	203.529	8.60806	187.863
0.9475	203.72	8.63039	187.65
0.95	203.91	8.65282	187.437
0.9525	204.1	8.67535	187.225
0.955	204.29	8.69798	187.012
0.9575	204.479	8.7207	186.8
0.96	204.668	8.74353	186.589
0.9625	204.856	8.76646	186.378
0.965	205.044	8.78949	186.167
0.9675	205.231	8.81263	185.956
0.97	205.418	8.83586	185.746
0.9725	205.605	8.8592	185.536
0.975	205.791	8.88264	185.326
0.9775	205.977	8.90618	185.117
0.98	206.162	8.92983	184.908
0.9825	206.347	8.95358	184.7
0.985	206.531	8.97744	184.491
0.9875	206.715	9.0014	184.283
0.99	206.899	9.02547	184.076
0.9925	207.082	9.04964	183.868
0.995	207.265	9.07392	183.661
0.9975	207.447	9.09831	183.454
1	207.629	9.1228	183.248
1.0025	207.811	9.1474	183.042
1.005	207.992	9.17211	182.836
1.0075	208.172	9.19693	182.631
1.01	208.353	9.22186	182.425
1.0125	208.532	9.24689	182.221
1.015	208.712	9.27203	182.016
1.0175	208.891	9.29729	181.812
1.02	209.069	9.32265	181.608
1.0225	209.247	9.34813	181.405
1.025	209.425	9.37372	181.201
1.0275	209.602	9.39942	180.998
1.03	209.779	9.42523	180.796
1.0325	209.955	9.45115	180.594
1.035	210.131	9.47719	180.392
1.0375	210.307	9.50334	180.19
1.04	210.482	9.5296	179.989
1.0425	210.656	9.55598	179.788
1.045	210.831	9.58247	179.587
1.0475	211.004	9.60908	179.387
1.05	211.178	9.63581	179.187
1.0525	211.351	9.66265	178.987
1.055	211.523	9.6896	178.787
1.0575	211.695	9.71668	178.588
1.06	211.867	9.74387	178.39
1.0625	212.038	9.77118	178.191
1.065	212.209	9.79861	177.993
1.0675	212.379	9.82615	177.795
1.07	212.549	9.85382	177.598
1.0725	212.718	9.8816	177.4
1.075	212.887	9.90951	177.203
1.0775	213.056	9.93754	177.007
1.08	213.224	9.96568	176.811
1.0825	213.391	9.99395	176.615
1.085	213.559	10.0223	176.419
1.0875	213.725	10.0509	176.224
1.09	213.892	10.0795	176.029
1.0925	214.058	10.1083	175.834
1.095	214.223	10.1371	175.64
1.0975	214.388	10.1662	175.446
1.1	214.553	10.1953	175.252
1.1025	214.717	10.2245	175.058
1.105	214.881	10.2539	174.865
1.1075	215.044	10.2834	174.673
1.11	215.207	10.3131	174.48
1.1125	215.369	10.3429	174.288
1.115	215.531	10.3727	174.096
1.1175	215.693	10.4028	173.905
1.12	215.854	10.4329	173.713
1.1225	216.014	10.4632	173.522
1.125	216.175	10.4936	173.332
1.1275	216.334	10.5242	173.142
1.13	216.494	10.5548	172.952
1.1325	216.652	10.5856	172.762
1.135	216.811	10.6166	172.573
1.1375	216.969	10.6476	172.384
1.14	217.126	10.6789	172.195
1.1425	217.283	10.7102	172.007
1.145	217.44	10.7417	171.818
1.1475	217.596	10.7733	171.631
1.15	217.752	10.805	171.443
1.1525	217.907	10.8369	171.256
1.155	218.062	10.8689	171.069
1.1575	218.216	10.901	170.883
1.16	218.37	10.9333	170.697
1.1625	218.524	10.9657	170.511
1.165	218.677	10.9983	170.325
1.1675	218.829	11.031	170.14
1.17	218.981	11.0638	169.955
1.1725	219.133	11.0968	169.77
1.175	219.284	11.1299	169.586
1.1775	219.435	11.1632	169.402
1.18	219.585	11.1966	169.218
1.1825	219.735	11.2302	169.035
1.185	219.884	11.2638	168.852
1.1875	220.033	11.2977	168.669
1.19	220.182	11.3316	168.487
1.1925	220.33	11.3658	168.305
1.195	220.477	11.4	168.123
1.1975	220.624	11.4344	167.941
1.2	220.771	11.469	167.76
1.2025	220.917	11.5037	167.579
1.205	221.063	11.5385	167.399
1.2075	221.208	11.5735	167.218
1.21	221.353	11.6087	167.038
1.2125	221.497	11.644	166.859
1.215	221.641	11.6794	166.68
1.2175	221.784	11.715	166.501
1.22	221.927	11.7508	166.322
1.2225	222.07	11.7866	166.144
1.225	222.212	11.8227	165.965
1.2275	222.353	11.8589	165.788
1.23	222.494	11.8952	165.61
1.2325	222.635	11.9317	165.433
1.235	222.775	11.9684	165.256
1.2375	222.915	12.0052	165.08
1.24	223.054	12.0422	164.904
1.2425	223.193	12.0793	164.728
1.245	223.331	12.1166	164.552
1.2475	223.469	12.154	164.377
1.25	223.606	12.1916	164.202
1.2525	223.743	12.2294	164.027
1.255	223.88	12.2673	163.853
1.2575	224.015	12.3054	163.679
1.26	224.151	12.3436	163.506
1.2625	224.286	12.382	163.332
1.265	224.42	12.4205	163.159
1.2675	224.554	12.4593	162.986
1.27	224.688	12.4981	162.814
1.2725	224.821	12.5372	162.642
1.275	224.954	12.5764	162.47
1.2775	225.086	12.6157	162.299
1.28	225.217	12.6553	162.127
1.2825	225.349	12.695	161.956
1.285	225.479	12.7348	161.786
1.2875	225.609	12.7749	161.616
1.29	225.739	12.8151	161.446
1.2925	225.868	12.8554	161.276
1.295	225.997	12.896	161.107
1.2975	226.125	12.9367	160.938
1.3	226.253	12.9776	160.769
1.3025	226.381	13.0186	160.601
1.305	226.507	13.0598	160.433
1.3075	226.634	13.1012	160.265
1.31	226.76	13.1428	160.098
1.3125	226.885	13.1845	159.931
1.315	227.01	13.2264	159.764
1.3175	227.134	13.2685	159.597
1.32	227.258	13.3108	159.431
1.3225	227.382	13.3532	159.265
1.325	227.505	13.3958	159.1
1.3275	227.627	13.4386	158.934
1.33	227.749	13.4816	158.77
1.3325	227.87	13.5247	158.605
1.335	227.991	13.568	158.441
1.3375	228.112	13.6116	158.277
1.34	228.232	13.6552	158.113
1.3425	228.351	13.6991	157.95
1.345	228.47	13.7432	157.787
1.3475	228.589	13.7874	157.624
1.35	228.707	13.8318	157.461
1.3525	228.824	13.8764	157.299
1.355	228.941	13.9212	157.138
1.3575	229.058	13.9661	156.976
1.36	229.174	14.0113	156.815
1.3625	229.289	14.0566	156.654
1.365	229.404	14.1022	156.494
1.3675	229.519	14.1479	156.333
1.37	229.633	14.1938	156.174
1.3725	229.746	14.2399	156.014
1.375	229.859	14.2862	155.855
1.3775	229.972	14.3326	155.696
1.38	230.084	14.3793	155.537
1.3825	230.195	14.4262	155.379
1.385	230.306	14.4732	155.221
1.3875	230.416	14.5205	155.063
1.39	230.526	14.5679	154.906
1.3925	230.636	14.6155	154.749
1.395	230.745	14.6634	154.592
1.3975	230.853	14.7114	154.436
1.4	230.961	14.7596	154.279
1.4025	231.068	14.808	154.124
1.405	231.175	14.8567	153.968
1.4075	231.281	14.9055	153.813
1.41	231.387	14.9545	153.658
1.4125	231.493	15.0037	153.504
1.415	231.597	15.0531	153.349
1.4175	231.702	15.1028	153.196
1.42	231.805	15.1526	153.042
1.4225	231.909	15.2026	152.889
1.425	232.011	15.2529	152.736
1.4275	232.114	15.3033	152.583
1.43	232.215	15.354	152.431
1.4325	232.316	15.4048	152.279
1.435	232.417	15.4559	152.127
1.4375	232.517	15.5071	151.976
1.44	232.617	15.5586	151.825
1.4425	232.716	15.6103	151.674
1.445	232.814	15.6622	151.524
1.4475	232.912	15.7143	151.374
1.45	233.01	15.7666	151.224
1.4525	233.107	15.8192	151.074
1.455	233.203	15.8719	150.925
1.4575	233.299	15.9249	150.776
1.46	233.394	15.9781	150.628
1.4625	233.489	16.0315	150.48
1.465	233.583	16.0851	150.332
1.4675	233.677	16.1389	150.184
1.47	233.77	16.1929	150.037
1.4725	233.863	16.2472	149.89
1.475	233.955	16.3017	149.744
1.4775	234.046	16.3564	149.597
1.48	234.137	16.4113	149.451
1.4825	234.228	16.4664	149.306
1.485	234.318	16.5218	149.16
1.4875	234.407	16.5774	149.015
1.49	234.496	16.6332	148.871
1.4925	234.584	16.6893	148.726
1.495	234.672	16.7455	148.582
1.4975	234.759	16.802	148.439
1.5	234.846	16.8587	148.295
1.5025	234.932	16.9157	148.152
1.505	235.018	16.9729	148.009
1.5075	235.103	17.0303	147.867
1.51	235.187	17.0879	147.725
1.5125	235.271	17.1458	147.583
1.515	235.354	17.2039	147.442
1.5175	235.437	17.2622	147.301
1.52	235.519	17.3208	147.16
1.5225	235.601	17.3796	147.019
1.525	235.682	17.4386	146.879
1.5275	235.763	17.4979	146.739
1.53	235.843	17.5574	146.6
1.5325	235.922	17.6171	146.461
1.535	236.001	17.6771	146.322
1.5375	236.079	17.7373	146.183
1.54	236.157	17.7978	146.045
1.5425	236.234	17.8585	145.907
1.545	236.311	17.9194	145.769
1.5475	236.387	17.9806	145.632
1.55	236.463	18.0421	145.495
1.5525	236.538	18.1037	145.359
1.555	236.612	18.1656	145.222
1.5575	236.686	18.2278	145.086
1.56	236.759	18.2902	144.951
1.5625	236.832	18.3529	144.816
1.565	236.904	18.4158	144.681
1.5675	236.975	18.4789	144.546
1.57	237.046	18.5423	144.412
1.5725	237.116	18.606	144.278
1.575	237.186	18.6699	144.144
1.5775	237.255	18.7341	144.011
1.58	237.324	18.7985	143.878
1.5825	237.392	18.8631	143.745
1.585	237.459	18.9281	143.613
1.5875	237.526	18.9932	143.481
1.59	237.593	19.0587	143.349
1.5925	237.658	19.1243	143.217
1.595	237.723	19.1903	143.086
1.5975	237.788	19.2565	142.956
1.6	237.852	19.323	142.825
1.6025	237.915	19.3897	142.695
1.605	237.978	19.4567	142.565
1.6075	238.04	19.5239	142.436
1.61	238.102	19.5914	142.307
1.6125	238.163	19.6592	142.178
1.615	238.223	19.7272	142.05
1.6175	238.283	19.7955	141.922
1.62	238.342	19.8641	141.794
1.6225	238.4	19.9329	141.667
1.625	238.458	20.002	141.54
1.6275	238.516	20.0714	141.413
1.63	238.573	20.141	141.286
1.6325	238.629	20.2109	141.16
1.635	238.684	20.2811	141.035
1.6375	238.739	20.3516	140.909
1.64	238.794	20.4223	140.784
1.6425	238.847	20.4933	140.659
1.645	238.901	20.5646	140.535
1.6475	238.953	20.6361	140.411
1.65	239.005	20.708	140.287
1.6525	239.056	20.7801	140.164
1.655	239.107	20.8524	140.04
1.6575	239.157	20.9251	139.918
1.66	239.207	20.998	139.795
1.6625	239.256	21.0712	139.673
1.665	239.304	21.1447	139.551
1.6675	239.351	21.2185	139.43
1.67	239.398	21.2926	139.309
1.6725	239.445	21.3669	139.188
1.675	239.491	21.4416	139.068
1.6775	239.536	21.5165	138.948
1.68	239.58	21.5917	138.828
1.6825	239.624	21.6672	138.709
1.685	239.667	21.7429	138.59
1.6875	239.71	21.819	138.471
1.69	239.752	21.8954	138.353
1.6925	239.793	21.972	138.235
1.695	239.834	22.0489	138.117
1.6975	239.874	22.1262	137.999
1.7	239.914	22.2037	137.882
1.7025	239.953	22.2815	137.766
1.705	239.991	22.3596	137.649
1.7075	240.029	22.438	137.533
1.71	240.066	22.5167	137.418
1.7125	240.102	22.5957	137.302
1.715	240.138	22.675	137.188
1.7175	240.173	22.7546	137.073
1.72	240.207	22.8345	136.959
1.7225	240.241	22.9146	136.845
1.725	240.274	22.9951	136.731
1.7275	240.306	23.0759	136.618
1.73	240.338	23.157	136.505
1.7325	240.369	23.2384	136.392
1.735	240.4	23.3201	136.28
1.7375	240.43	23.4021	136.168
1.74	240.459	23.4844	136.057
1.7425	240.487	23.567	135.946
1.745	240.515	23.65	135.835
1.7475	240.543	23.7332	135.724
1.75	240.569	23.8168	135.614
1.7525	240.595	23.9006	135.504
1.755	240.62	23.9848	135.395
1.7575	240.645	24.0692	135.286
1.76	240.669	24.154	135.177
1.7625	240.692	24.2391	135.068
1.765	240.715	24.3245	134.96
1.7675	240.737	24.4103	134.853
1.77	240.758	24.4963	134.745
1.7725	240.779	24.5827	134.638
1.775	240.799	24.6693	134.532
1.7775	240.818	24.7563	134.425
1.78	240.837	24.8437	134.319
1.7825	240.855	24.9313	134.214
1.785	240.872	25.0192	134.109
1.7875	240.889	25.1075	134.004
1.79	240.905	25.1961	133.899
1.7925	240.92	25.285	133.795
1.795	240.935	25.3743	133.691
1.7975	240.949	25.4638	133.587
1.8	240.962	25.5537	133.484
1.8025	240.975	25.6439	133.382
1.805	240.986	25.7345	133.279
1.8075	240.998	25.8253	133.177
1.81	241.008	25.9165	133.075
1.8125	241.018	26.0081	132.974
1.815	241.027	26.0999	132.873
1.8175	241.036	26.1921	132.772
1.82	241.043	26.2846	132.672
1.8225	241.051	26.3775	132.572
1.825	241.057	26.4707	132.472
1.8275	241.063	26.5642	132.373
1.83	241.068	26.658	132.274
1.8325	241.072	26.7522	132.176
1.835	241.076	26.8467	132.078
1.8375	241.079	26.9416	131.98
1.84	241.081	27.0368	131.882
1.8425	241.082	27.1323	131.785
1.845	241.083	27.2282	131.689
1.8475	241.083	27.3244	131.592
1.85	241.083	27.4209	131.496
1.8525	241.082	27.5178	131.401
1.855	241.08	27.615	131.305
1.8575	241.077	27.7126	131.21
1.86	241.074	27.8105	131.116
1.8625	241.07	27.9088	131.022
1.865	241.065	28.0074	130.928
1.8675	241.059	28.1063	130.834
1.87	241.053	28.2056	130.741
1.8725	241.046	28.3052	130.649
1.875	241.039	28.4052	130.556
1.8775	241.03	28.5055	130.464
1.88	241.021	28.6062	130.373
1.8825	241.012	28.7072	130.281
1.885	241.001	28.8086	130.19
1.8875	240.99	28.9103	130.1
1.89	240.978	29.0124	130.01
1.8925	240.965	29.1148	129.92
1.895	240.952	29.2176	129.83
1.8975	240.938	29.3208	129.741
1.9	240.923	29.4242	129.653
1.9025	240.908	29.5281	129.564
1.905	240.891	29.6323	129.476
1.9075	240.874	29.7368	129.389
1.91	240.857	29.8417	129.302
1.9125	240.838	29.947	129.215
1.915	240.819	30.0526	129.128
1.9175	240.799	30.1586	129.042
1.92	240.779	30.2649	128.957
1.9225	240.757	30.3716	128.871
1.925	240.735	30.4787	128.786
1.9275	240.712	30.5861	128.702
1.93	240.689	30.6939	128.617
1.9325	240.664	30.802	128.534
1.935	240.639	30.9105	128.45
1.9375	240.614	31.0194	128.367
1.94	240.587	31.1286	128.284
1.9425	240.56	31.2382	128.202
1.945	240.532	31.3481	128.12
1.9475	240.503	31.4585	128.038
1.95	240.474	31.5691	127.957
1.9525	240.444	31.6802	127.876
1.955	240.413	31.7916	127.796
1.9575	240.381	31.9034	127.716
1.96	240.348	32.0155	127.636
1.9625	240.315	32.1281	127.557
1.965	240.281	32.2409	127.478
1.9675	240.247	32.3542	127.399
1.97	240.211	32.4678	127.321
1.9725	240.175	32.5818	127.243
1.975	240.138	32.6962	127.166
1.9775	240.1	32.8109	127.089
1.98	240.062	32.926	127.012
1.9825	240.023	33.0415	126.936
1.985	239.983	33.1574	126.86
1.9875	239.942	33.2736	126.785
1.99	239.9	33.3902	126.709
1.9925	239.858	33.5071	126.635
1.995	239.815	33.6245	126.56
1.9975	239.771	33.7422	126.486
2	239.727	33.8603	126.413
2.0025	239.682	33.9788	126.34
2.005	239.635	34.0976	126.267
2.0075	239.589	34.2168	126.195
2.01	239.541	34.3364	126.123
2.0125	239.493	34.4564	126.051
2.015	239.444	34.5767	125.98
2.0175	239.394	34.6975	125.909
2.02	239.343	34.8186	125.838
2.0225	239.292	34.94	125.768
2.025	239.239	35.0619	125.699
2.0275	239.186	35.1841	125.629
2.03	239.133	35.3068	125.561
2.0325	239.078	35.4298	125.492
2.035	239.023	35.5531	125.424
2.0375	238.967	35.6769	125.356
2.04	238.91	35.801	125.289
2.0425	238.852	35.9256	125.222
2.045	238.794	36.0505	125.156
2.0475	238.735	36.1757	125.089
2.05	238.675	36.3014	125.024
2.0525	238.614	36.4274	124.958
2.055	238.553	36.5539	124.893
2.0575	238.49	36.6807	124.829
2.06	238.427	36.8079	124.765
2.0625	238.364	36.9354	124.701
2.065	238.299	37.0634	124.638
2.0675	238.234	37.1917	124.575
2.07	238.167	37.3204	124.512
2.0725	238.1	37.4495	124.45
2.075	238.033	37.579	124.388
2.0775	237.964	37.7089	124.327
2.08	237.895	37.8392	124.266
2.0825	237.825	37.9698	124.206
2.085	237.754	38.1008	124.145
2.0875	237.682	38.2322	124.086
2.09	237.61	38.364	124.026
2.0925	237.536	38.4962	123.967
2.095	237.462	38.6287	123.909
2.0975	237.388	38.7617	123.851
2.1	237.312	38.895	123.793
2.1025	237.236	39.0287	123.736
2.105	237.158	39.1628	123.679
2.1075	237.08	39.2973	123.622
2.11	237.002	39.4322	123.566
2.1125	236.922	39.5674	123.511
2.115	236.842	39.703	123.455
2.1175	236.76	39.8391	123.401
2.12	236.678	39.9755	123.346
2.1225	236.596	40.1122	123.292
2.125	236.512	40.2494	123.238
2.1275	236.428	40.387	123.185
2.13	236.343	40.5249	123.132
2.1325	236.257	40.6632	123.08
2.135	236.17	40.8019	123.028
2.1375	236.083	40.941	122.976
2.14	235.994	41.0805	122.925
2.1425	235.905	41.2204	122.875
2.145	235.815	41.3606	122.824
2.1475	235.725	41.5012	122.774
2.15	235.633	41.6423	122.725
2.1525	235.541	41.7836	122.676
2.155	235.448	41.9254	122.627
2.1575	235.354	42.0676	122.579
2.16	235.259	42.2101	122.531
2.1625	235.164	42.353	122.483
2.165	235.067	42.4964	122.436
2.1675	234.97	42.64	122.39
2.17	234.872	42.7841	122.344
2.1725	234.774	42.9286	122.298
2.175	234.674	43.0734	122.253
2.1775	234.574	43.2186	122.208
2.18	234.473	43.3642	122.163
2.1825	234.371	43.5102	122.119
2.185	234.268	43.6565	122.075
2.1875	234.165	43.8033	122.032
2.19	234.06	43.9504	121.989
2.1925	233.955	44.0979	121.947
2.195	233.849	44.2457	121.905
2.1975	233.743	44.394	121.863
2.2	233.635	44.5426	121.822
2.2025	233.527	44.6916	121.782
2.205	233.418	44.841	121.741
2.2075	233.308	44.9907	121.701
2.21	233.197	45.1408	121.662
2.2125	233.086	45.2913	121.623
2.215	232.973	45.4422	121.584
2.2175	232.86	45.5935	121.546
2.22	232.746	45.7451	121.508
2.2225	232.632	45.8971	121.471
2.225	232.516	46.0495	121.434
2.2275	232.4	46.2022	121.398
2.23	232.283	46.3553	121.362
2.2325	232.165	46.5088	121.326
2.235	232.046	46.6627	121.291
2.2375	231.927	46.8169	121.256
2.24	231.807	46.9715	121.222
2.2425	231.685	47.1265	121.188
2.245	231.564	47.2818	121.155
2.2475	231.441	47.4375	121.122
2.25	231.317	47.5935	121.089
2.2525	231.193	47.75	121.057
2.255	231.068	47.9068	121.025
2.2575	230.942	48.0639	120.994
2.26	230.816	48.2215	120.963
2.2625	230.688	48.3793	120.932
2.265	230.56	48.5376	120.902
2.2675	230.431	48.6962	120.873
2.27	230.301	48.8552	120.844
2.2725	230.17	49.0145	120.815
2.275	230.039	49.1742	120.787
2.2775	229.907	49.3342	120.759
2.28	229.774	49.4946	120.732
2.2825	229.64	49.6554	120.705
2.285	229.505	49.8165	120.678
2.2875	229.37	49.9779	120.652
2.29	229.234	50.1398	120.626
2.2925	229.097	50.3019	120.601
2.295	228.959	50.4644	120.576
2.2975	228.821	50.6273	120.552
2.3	228.681	50.7905	120.528
2.3025	228.541	50.9541	120.505
2.305	228.4	51.118	120.482
2.3075	228.259	51.2823	120.459
2.31	228.116	51.4469	120.437
2.3125	227.973	51.6118	120.415
2.315	227.829	51.7771	120.394
2.3175	227.684	51.9428	120.373
2.32	227.539	52.1088	120.353
2.3225	227.392	52.2751	120.333
2.325	227.245	52.4417	120.313
2.3275	227.097	52.6087	120.294
2.33	226.948	52.776	120.276
2.3325	226.799	52.9437	120.257
2.335	226.649	53.1117	120.24
2.3375	226.498	53.28	120.222
2.34	226.346	53.4487	120.205
2.3425	226.193	53.6177	120.189
2.345	226.04	53.787	120.173
2.3475	225.886	53.9566	120.158
2.35	225.731	54.1266	120.142
2.3525	225.575	54.2969	120.128
2.355	225.419	54.4675	120.114
2.3575	225.262	54.6385	120.1
2.36	225.104	54.8097	120.087
2.3625	224.945	54.9813	120.074
2.365	224.785	55.1532	120.061
2.3675	224.625	55.3254	120.049
2.37	224.464	55.498	120.038
2.3725	224.302	55.6708	120.027
2.375	224.14	55.844	120.016
2.3775	223.977	56.0174	120.006
2.38	223.813	56.1912	119.996
2.3825	223.648	56.3653	119.987
2.385	223.482	56.5397	119.978
2.3875	223.316	56.7144	119.97
2.39	223.149	56.8894	119.962
2.3925	222.981	57.0647	119.954
2.395	222.813	57.2403	119.947
2.3975	222.643	57.4162	119.941
2.4	222.473	57.5924	119.934
2.4025	222.303	57.7688	119.929
2.405	222.131	57.9456	119.923
2.4075	221.959	58.1227	119.919
2.41	221.786	58.3	119.914
2.4125	221.612	58.4777	119.91
2.415	221.438	58.6556	119.907
2.4175	221.262	58.8338	119.904
2.42	221.086	59.0123	119.901
2.4225	220.91	59.1911	119.899
2.425	220.732	59.3702	119.897
2.4275	220.554	59.5495	119.896
2.43	220.375	59.7291	119.895
2.4325	220.196	59.909	119.895
2.435	220.016	60.0892	119.895
2.4375	219.835	60.2696	119.896
2.44	219.653	60.4503	119.897
2.4425	219.47	60.6312	119.898
2.445	219.287	60.8125	119.9
2.4475	219.103	60.994	119.903
2.45	218.919	61.1757	119.905
2.4525	218.734	61.3577	119.909
2.455	218.548	61.54	119.912
2.4575	218.361	61.7225	119.917
2.46	218.173	61.9052	119.921
2.4625	217.985	62.0882	119.926
2.465	217.797	62.2715	119.932
2.4675	217.607	62.455	119.938
2.47	217.417	62.6388	119.944
2.4725	217.226	62.8228	119.951
2.475	217.034	63.007	119.959
2.4775	216.842	63.1915	119.966
2.48	216.649	63.3762	119.975
2.4825	216.456	63.5611	119.983
2.485	216.261	63.7463	119.992
2.4875	216.066	63.9317	120.002
2.49	215.871	64.1173	120.012
2.4925	215.674	64.3031	120.023
2.495	215.477	64.4892	120.034
2.4975	215.28	64.6755	120.045
2.5	215.081	64.862	120.057
2.5025	214.882	65.0487	120.069
2.505	214.682	65.2356	120.082
2.5075	214.482	65.4228	120.095
2.51	214.281	65.6101	120.109
2.5125	214.079	65.7977	120.123
2.515	213.877	65.9854	120.137
2.5175	213.674	66.1734	120.153
2.52	213.47	66.3615	120.168
2.5225	213.266	66.5499	120.184
2.525	213.061	66.7384	120.2
2.5275	212.856	66.9271	120.217
2.53	212.65	67.1161	120.234
2.5325	212.443	67.3052	120.252
2.535	212.235	67.4945	120.27
2.5375	212.027	67.6839	120.289
2.54	211.818	67.8736	120.308
2.5425	211.609	68.0634	120.327
2.545	211.399	68.2534	120.347
2.5475	211.189	68.4436	120.368
2.55	210.977	68.6339	120.389
2.5525	210.766	68.8244	120.41
2.555	210.553	69.0151	120.432
2.5575	210.34	69.2059	120.454
2.56	210.126	69.3969	120.477
2.5625	209.912	69.588	120.5
2.565	209.697	69.7793	120.523
2.5675	209.482	69.9708	120.547
2.57	209.266	70.1624	120.572
2.5725	209.049	70.3541	120.597
2.575	208.832	70.546	120.622
2.5775	208.614	70.738	120.648
2.58	208.396	70.9301	120.674
2.5825	208.177	71.1224	120.701
2.585	207.957	71.3148	120.728
2.5875	207.737	71.5073	120.756
2.59	207.516	71.7	120.784
2.5925	207.295	71.8928	120.812
2.595	207.073	72.0857	120.841
2.5975	206.851	72.2787	120.871
2.6	206.628	72.4718	120.9
2.6025	206.404	72.6651	120.931
2.605	206.18	72.8584	120.961
2.6075	205.956	73.0519	120.993
2.61	205.73	73.2454	121.024
2.6125	205.505	73.4391	121.056
2.615	205.278	73.6328	121.089
2.6175	205.052	73.8267	121.122
2.62	204.824	74.0206	121.155
2.6225	204.596	74.2146	121.189
2.625	204.368	74.4088	121.223
2.6275	204.139	74.6029	121.258
2.63	203.91	74.7972	121.293
2.6325	203.68	74.9915	121.329
2.635	203.449	75.186	121.365
2.6375	203.218	75.3804	121.401
2.64	202.987	75.575	121.438
2.6425	202.755	75.7696	121.475
2.645	202.522	75.9643	121.513
2.6475	202.29	76.159	121.551
2.65	202.056	76.3538	121.59
2.6525	201.822	76.5486	121.629
2.655	201.588	76.7435	121.669
2.6575	201.353	76.9384	121.709
2.66	201.117	77.1334	121.749
2.6625	200.881	77.3284	121.79
2.665	200.645	77.5235	121.831
2.6675	200.408	77.7185	121.873
2.67	200.171	77.9136	121.915
2.6725	199.933	78.1088	121.958
2.675	199.695	78.3039	122.001
2.6775	199.456	78.4991	122.044
2.68	199.217	78.6943	122.088
2.6825	198.978	78.8895	122.133
2.685	198.738	79.0847	122.177
2.6875	198.497	79.2799	122.223
2.69	198.257	79.4751	122.268
2.6925	198.015	79.6704	122.314
2.695	197.774	79.8656	122.361
2.6975	197.531	80.0608	122.408
2.7	197.289	80.256	122.455
2.7025	197.046	80.4512	122.503
2.705	196.802	80.6464	122.551
2.7075	196.559	80.8415	122.6
2.71	196.314	81.0367	122.649
2.7125	196.07	81.2318	122.698
2.715	195.825	81.4269	122.748
2.7175	195.579	81.6219	122.799
2.72	195.334	81.8169	122.849
2.7225	195.087	82.0119	122.901
2.725	194.841	82.2068	122.952
2.7275	194.594	82.4017	123.004
2.73	194.347	82.5966	123.057
2.7325	194.099	82.7914	123.11
2.735	193.851	82.9861	123.163
2.7375	193.603	83.1808	123.217
2.74	193.354	83.3754	123.271
2.7425	193.105	83.57	123.325
2.745	192.855	83.7644	123.38
2.7475	192.605	83.9589	123.436
2.75	192.355	84.1532	123.492
2.7525	192.105	84.3475	123.548
2.755	191.854	84.5416	123.604
2.7575	191.603	84.7357	123.661
2.76	191.351	84.9297	123.719
2.7625	191.1	85.1237	123.777
2.765	190.847	85.3175	123.835
2.7675	190.595	85.5112	123.894
2.77	190.342	85.7048	123.953
2.7725	190.089	85.8983	124.012
2.775	189.836	86.0917	124.072
2.7775	189.582	86.285	124.133
2.78	189.328	86.4782	124.193
2.7825	189.074	86.6713	124.255
2.785	188.82	86.8642	124.316
2.7875	188.565	87.057	124.378
2.79	188.31	87.2497	124.441
2.7925	188.054	87.4423	124.503
2.795	187.799	87.6347	124.566
2.7975	187.543	87.827	124.63
2.8	187.287	88.0192	124.694
2.8025	187.03	88.2112	124.758
2.805	186.774	88.403	124.823
2.8075	186.517	88.5947	124.888
2.81	186.26	88.7863	124.954
2.8125	186.002	88.9776	125.02
2.815	185.745	89.1689	125.086
2.8175	185.487	89.3599	125.153
2.82	185.229	89.5508	125.22
2.8225	184.971	89.7415	125.288
2.825	184.712	89.9321	125.356
2.8275	184.454	90.1225	125.424
2.83	184.195	90.3126	125.493
2.8325	183.936	90.5027	125.562
2.835	183.676	90.6925	125.631
2.8375	183.417	90.8821	125.701
2.84	183.157	91.0715	125.771
2.8425	182.897	91.2608	125.842
2.845	182.637	91.4498	125.913
2.8475	182.377	91.6386	125.985
2.85	182.116	91.8272	126.056
2.8525	181.856	92.0156	126.129
2.855	181.595	92.2038	126.201
2.8575	181.334	92.3918	126.274
2.86	181.073	92.5796	126.347
2.8625	180.812	92.7671	126.421
2.865	180.55	92.9544	126.495
2.8675	180.289	93.1415	126.57
2.87	180.027	93.3283	126.645
2.8725	179.765	93.5149	126.72
2.875	179.503	93.7013	126.795
2.8775	179.241	93.8874	126.871
2.88	178.979	94.0732	126.948
2.8825	178.717	94.2589	127.024
2.885	178.454	94.4442	127.101
2.8875	178.192	94.6293	127.179
2.89	177.929	94.8142	127.256
2.8925	177.667	94.9988	127.335
2.895	177.404	95.1831	127.413
2.8975	177.141	95.3672	127.492
2.9	176.878	95.5509	127.571
2.9025	176.615	95.7345	127.651
2.905	176.352	95.9177	127.731
2.9075	176.088	96.1006	127.811
2.91	175.825	96.2833	127.892
2.9125	175.562	96.4657	127.973
2.915	175.298	96.6477	128.054
2.9175	175.035	96.8295	128.136
2.92	174.771	97.011	128.218
2.9225	174.507	97.1922	128.3
2.925	174.244	97.3731	128.383
2.9275	173.98	97.5537	128.466
2.93	173.716	97.7339	128.55
2.9325	173.452	97.9139	128.634
2.935	173.189	98.0935	128.718
2.9375	172.925	98.2729	128.802
2.94	172.661	98.4519	128.887
2.9425	172.397	98.6305	128.972
2.945	172.133	98.8089	129.058
2.9475	171.869	98.9869	129.144
2.95	171.605	99.1646	129.23
2.9525	171.342	99.342	129.316
2.955	171.078	99.519	129.403
2.9575	170.814	99.6956	129.491
2.96	170.55	99.872	129.578
2.9625	170.286	100.048	129.666
2.965	170.022	100.224	129.754
2.9675	169.758	100.399	129.843
2.97	169.495	100.574	129.932
2.9725	169.231	100.748	130.021
2.975	168.967	100.922	130.11
2.9775	168.704	101.096	130.2
2.98	168.44	101.27	130.29
2.9825	168.176	101.443	130.381
2.985	167.913	101.616	130.471
2.9875	167.649	101.788	130.563
2.99	167.386	101.96	130.654
2.9925	167.123	102.131	130.746
2.995	166.86	102.303	130.838
2.9975	166.596	102.473	130.93
3	166.333	102.644	131.023
3.0025	166.07	102.814	131.116
3.005	165.807	102.983	131.209
3.0075	165.545	103.153	131.303
3.01	165.282	103.322	131.397
3.0125	165.019	103.49	131.491
3.015	164.757	103.658	131.585
3.0175	164.494	103.826	131.68
3.02	164.232	103.993	131.775
3.0225	163.97	104.16	131.871
3.025	163.708	104.326	131.966
3.0275	163.446	104.492	132.062
3.03	163.184	104.657	132.159
3.0325	162.922	104.823	132.255
3.035	162.661	104.987	132.352
3.0375	162.399	105.151	132.449
3.04	162.138	105.315	132.547
3.0425	161.877	105.479	132.645
3.045	161.616	105.642	132.743
3.0475	161.355	105.804	132.841
3.05	161.094	105.966	132.94
3.0525	160.834	106.128	133.038
3.055	160.573	106.289	133.138
3.0575	160.313	106.45	133.237
3.06	160.053	106.61	133.337
3.0625	159.793	106.77	133.437
3.065	159.534	106.929	133.537
3.0675	159.274	107.088	133.638
3.07	159.015	107.247	133.738
3.0725	158.756	107.405	133.839
3.075	158.497	107.562	133.941
3.0775	158.238	107.719	134.042
3.08	157.98	107.876	134.144
3.0825	157.722	108.032	134.246
3.085	157.464	108.188	134.349
3.0875	157.206	108.343	134.451
3.09	156.948	108.497	134.554
3.0925	156.691	108.652	134.658
3.095	156.434	108.805	134.761
3.0975	156.177	108.959	134.865
3.1	155.92	109.111	134.969
3.1025	155.663	109.264	135.073
3.105	155.407	109.416	135.177
3.1075	155.151	109.567	135.282
3.11	154.895	109.718	135.387
3.1125	154.64	109.868	135.492
3.115	154.385	110.018	135.598
3.1175	154.13	110.167	135.703
3.12	153.875	110.316	135.809
3.1225	153.62	110.464	135.915
3.125	153.366	110.612	136.022
3.1275	153.112	110.76	136.128
3.13	152.859	110.906	136.235
3.1325	152.605	111.053	136.342
3.135	152.352	111.198	136.449
3.1375	152.099	111.344	136.557
3.14	151.847	111.488	136.665
3.1425	151.594	111.633	136.773
3.145	151.342	111.776	136.881
3.1475	151.091	111.92	136.99
3.15	150.839	112.062	137.098
3.1525	150.588	112.205	137.207
3.155	150.338	112.346	137.316
3.1575	150.087	112.487	137.426
3.16	149.837	112.628	137.535
3.1625	149.587	112.768	137.645
3.165	149.338	112.907	137.755
3.1675	149.089	113.046	137.865
3.17	148.84	113.185	137.975
3.1725	148.591	113.323	138.086
3.175	148.343	113.46	138.197
3.1775	148.095	113.597	138.308
3.18	147.848	113.733	138.419
3.1825	147.6	113.869	138.53
3.185	147.354	114.004	138.642
3.1875	147.107	114.139	138.754
3.19	146.861	114.273	138.866
3.1925	146.615	114.407	138.978
3.195	146.37	114.54	139.09
3.1975	146.125	114.672	139.203
3.2	145.88	114.804	139.316
3.2025	145.635	114.936	139.429
3.205	145.391	115.067	139.542
3.2075	145.148	115.197	139.655
3.21	144.905	115.327	139.769
3.2125	144.662	115.456	139.882
3.215	144.419	115.585	139.996
3.2175	144.177	115.713	140.11
3.22	143.935	115.84	140.225
3.2225	143.694	115.967	140.339
3.225	143.453	116.093	140.454
3.2275	143.212	116.219	140.568
3.23	142.972	116.345	140.683
3.2325	142.732	116.469	140.798
3.235	142.493	116.593	140.914
3.2375	142.254	116.717	141.029
3.24	142.015	116.84	141.145
3.2425	141.777	116.962	141.26
3.245	141.539	117.084	141.376
3.2475	141.302	117.206	141.492
3.25	141.065	117.326	141.609
3.2525	140.829	117.447	141.725
3.255	140.592	117.566	141.841
3.2575	140.357	117.685	141.958
3.26	140.121	117.804	142.075
3.2625	139.887	117.921	142.192
3.265	139.652	118.039	142.309
3.2675	139.418	118.156	142.426
3.27	139.185	118.272	142.544
3.2725	138.951	118.387	142.661
3.275	138.719	118.502	142.779
3.2775	138.486	118.617	142.897
3.28	138.255	118.73	143.015
3.2825	138.023	118.844	143.133
3.285	137.792	118.956	143.251
3.2875	137.562	119.069	143.37
3.29	137.332	119.18	143.488
3.2925	137.102	119.291	143.607
3.295	136.873	119.401	143.726
3.2975	136.644	119.511	143.845
3.3	136.416	119.62	143.964
3.3025	136.188	119.729	144.083
3.305	135.961	119.837	144.202
3.3075	135.734	119.944	144.321
3.31	135.508	120.051	144.441
3.3125	135.282	120.158	144.561
3.315	135.056	120.263	144.68
3.3175	134.831	120.368	144.8
3.32	134.607	120.473	144.92
3.3225	134.383	120.577	145.04
3.325	134.159	120.68	145.161
3.3275	133.936	120.783	145.281
3.33	133.714	120.885	145.401
3.3325	133.492	120.987	145.522
3.335	133.27	121.088	145.642
3.3375	133.049	121.188	145.763
3.34	132.828	121.288	145.884
3.3425	132.608	121.387	146.005
3.345	132.388	121.486	146.126
3.3475	132.169	121.584	146.247
3.35	131.95	121.681	146.368
3.3525	131.732	121.778	146.489
3.355	131.515	121.875	146.611
3.3575	131.297	121.97	146.732
3.36	131.081	122.065	146.854
3.3625	130.865	122.16	146.975
3.365	130.649	122.254	147.097
3.3675	130.434	122.347	147.219
3.37	130.219	122.44	147.341
3.3725	130.005	122.532	147.463
3.375	129.791	122.624	147.585
3.3775	129.578	122.715	147.707
3.38	129.365	122.805	147.829
3.3825	129.153	122.895	147.951
3.385	128.942	122.985	148.074
3.3875	128.731	123.073	148.196
3.39	128.52	123.161	148.319
3.3925	128.31	123.249	148.441
3.395	128.1	123.336	148.564
3.3975	127.891	123.422	148.686
3.4	127.683	123.508	148.809
3.4025	127.475	123.593	148.932
3.405	127.267	123.678	149.055
3.4075	127.06	123.762	149.178
3.41	126.854	123.845	149.301
3.4125	126.648	123.928	149.424
3.415	126.443	124.01	149.547
3.4175	126.238	124.092	149.67
3.42	126.034	124.173	149.793
3.4225	125.83	124.254	149.916
3.425	125.627	124.334	150.04
3.4275	125.424	124.413	150.163
3.43	125.222	124.492	150.286
3.4325	125.02	124.57	150.41
3.435	124.819	124.648	150.533
3.4375	124.619	124.725	150.656
3.44	124.419	124.801	150.78
3.4425	124.219	124.877	150.904
3.445	124.02	124.952	151.027
3.4475	123.822	125.027	151.151
3.45	123.624	125.101	151.274
3.4525	123.427	125.175	151.398
3.455	123.23	125.248	151.522
3.4575	123.034	125.32	151.645
3.46	122.838	125.392	151.769
3.4625	122.643	125.464	151.893
3.465	122.449	125.534	152.017
3.4675	122.255	125.604	152.141
3.47	122.061	125.674	152.264
3.4725	121.869	125.743	152.388
3.475	121.676	125.812	152.512
3.4775	121.484	125.879	152.636
3.48	121.293	125.947	152.76
3.4825	121.102	126.014	152.884
3.485	120.912	126.08	153.008
3.4875	120.723	126.145	153.132
3.49	120.534	126.21	153.256
3.4925	120.345	126.275	153.38
3.495	120.157	126.339	153.504
3.4975	119.97	126.402	153.628
3.5	119.783	126.465	153.752
3.5025	119.597	126.527	153.876
3.505	119.411	126.589	154
3.5075	119.226	126.65	154.124
3.51	119.042	126.711	154.248
3.5125	118.858	126.771	154.372
3.515	118.674	126.83	154.495
3.5175	118.491	126.889	154.619
3.52	118.309	126.948	154.743
3.5225	118.127	127.006	154.867
3.525	117.946	127.063	154.991
3.5275	117.765	127.12	155.115
3.53	117.585	127.176	155.239
3.5325	117.406	127.231	155.363
3.535	117.227	127.286	155.487
3.5375	117.048	127.341	155.611
3.54	116.871	127.395	155.734
3.5425	116.693	127.448	155.858
3.545	116.517	127.501	155.982
3.5475	116.34	127.554	156.106
3.55	116.165	127.606	156.23
3.5525	115.99	127.657	156.353
3.555	115.815	127.708	156.477
3.5575	115.641	127.758	156.601
3.56	115.468	127.808	156.724
3.5625	115.295	127.857	156.848
3.565	115.123	127.905	156.971
3.5675	114.952	127.953	157.095
3.57	114.781	128.001	157.218
3.5725	114.61	128.048	157.342
3.575	114.44	128.095	157.465
3.5775	114.271	128.141	157.589
3.58	114.102	128.186	157.712
3.5825	113.934	128.231	157.835
3.585	113.766	128.275	157.959
3.5875	113.599	128.319	158.082
3.59	113.432	128.363	158.205
3.5925	113.266	128.405	158.328
3.595	113.101	128.448	158.451
3.5975	112.936	128.49	158.574
3.6	112.772	128.531	158.697
3.6025	112.608	128.572	158.82
3.605	112.445	128.612	158.943
3.6075	112.282	128.652	159.066
3.61	112.12	128.691	159.189
3.6125	111.959	128.73	159.311
3.615	111.798	128.768	159.434
3.6175	111.638	128.806	159.557
3.62	111.478	128.843	159.679
3.6225	111.319	128.88	159.802
3.625	111.16	128.916	159.924
3.6275	111.002	128.951	160.046
3.63	110.845	128.987	160.169
3.6325	110.688	129.021	160.291
3.635	110.531	129.056	160.413
3.6375	110.375	129.089	160.535
3.64	110.22	129.123	160.657
3.6425	110.066	129.155	160.779
3.645	109.911	129.188	160.901
3.6475	109.758	129.219	161.023
3.65	109.605	129.251	161.145
3.6525	109.452	129.281	161.266
3.655	109.3	129.312	161.388
3.6575	109.149	129.342	161.509
3.66	108.998	129.371	161.631
3.6625	108.848	129.4	161.752
3.665	108.698	129.428	161.873
3.6675	108.549	129.456	161.995
3.67	108.401	129.484	162.116
3.6725	108.253	129.51	162.237
3.675	108.105	129.537	162.358
3.6775	107.959	129.563	162.478
3.68	107.812	129.589	162.599
3.6825	107.667	129.614	162.72
3.685	107.521	129.638	162.84
3.6875	107.377	129.662	162.961
3.69	107.233	129.686	163.081
3.6925	107.089	129.709	163.202
3.695	106.946	129.732	163.322
3.6975	106.804	129.754	163.442
3.7	106.662	129.776	163.562
3.7025	106.52	129.798	163.682
3.705	106.38	129.818	163.802
3.7075	106.239	129.839	163.922
3.71	106.1	129.859	164.041
3.7125	105.961	129.879	164.161
3.715	105.822	129.898	164.28
3.7175	105.684	129.916	164.4
3.72	105.547	129.935	164.519
3.7225	105.41	129.952	164.638
3.725	105.273	129.97	164.757
3.7275	105.137	129.987	164.876
3.73	105.002	130.003	164.995
3.7325	104.867	130.019	165.113
3.735	104.733	130.035	165.232
3.7375	104.599	130.05	165.351
3.74	104.466	130.065	165.469
3.7425	104.334	130.079	165.587
3.745	104.202	130.093	165.705
3.7475	104.07	130.106	165.823
3.75	103.939	130.119	165.941
3.7525	103.809	130.132	166.059
3.755	103.679	130.144	166.177
3.7575	103.55	130.156	166.294
3.76	103.421	130.167	166.412
3.7625	103.293	130.178	166.529
3.765	103.165	130.189	166.646
3.7675	103.038	130.199	166.764
3.77	102.911	130.208	166.881
3.7725	102.785	130.218	166.997
3.775	102.659	130.227	167.114
3.7775	102.534	130.235	167.231
3.78	102.41	130.243	167.347
3.7825	102.286	130.251	167.464
3.785	102.162	130.258	167.58
3.7875	102.039	130.265	167.696
3.79	101.917	130.271	167.812
3.7925	101.795	130.277	167.928
3.795	101.674	130.283	168.043
3.7975	101.553	130.288	168.159
3.8	101.432	130.293	168.275
3.8025	101.313	130.298	168.39
3.805	101.193	130.302	168.505
3.8075	101.075	130.305	168.62
3.81	100.956	130.309	168.735
3.8125	100.839	130.312	168.85
3.815	100.721	130.314	168.964
3.8175	100.605	130.316	169.079
3.82	100.489	130.318	169.193
3.8225	100.373	130.319	169.308
3.825	100.258	130.32	169.422
3.8275	100.143	130.321	169.536
3.83	100.029	130.321	169.649
3.8325	99.9156	130.321	169.763
3.835	99.8025	130.321	169.877
3.8375	99.69	130.32	169.99
3.84	99.5779	130.319	170.103
3.8425	99.4664	130.317	170.216
3.845	99.3554	130.315	170.329
3.8475	99.2448	130.313	170.442
3.85	99.1348	130.31	170.555
3.8525	99.0253	130.307	170.667
3.855	98.9163	130.304	170.78
3.8575	98.8078	130.3	170.892
3.86	98.6998	130.296	171.004
3.8625	98.5923	130.292	171.116
3.865	98.4853	130.287	171.228
3.8675	98.3788	130.282	171.339
3.87	98.2728	130.277	171.451
3.8725	98.1673	130.271	171.562
3.875	98.0623	130.265	171.673
3.8775	97.9578	130.258	171.784
3.88	97.8538	130.251	171.895
3.8825	97.7502	130.244	172.006
3.885	97.6472	130.237	172.116
3.8875	97.5447	130.229	172.226
3.89	97.4426	130.221	172.337
3.8925	97.3411	130.212	172.447
3.895	97.24	130.203	172.557
3.8975	97.1394	130.194	172.666
3.9	97.0393	130.185	172.776
3.9025	96.9397	130.175	172.885
3.905	96.8406	130.165	172.995
3.9075	96.7419	130.154	173.104
3.91	96.6438	130.144	173.213
3.9125	96.5461	130.133	173.321
3.915	96.4489	130.121	173.43
3.9175	96.3521	130.109	173.538
3.92	96.2559	130.097	173.647
3.9225	96.1601	130.085	173.755
3.925	96.0648	130.072	173.863
3.9275	95.97	130.059	173.97
3.93	95.8757	130.046	174.078
3.9325	95.7818	130.033	174.186
3.935	95.6884	130.019	174.293
3.9375	95.5955	130.005	174.4
3.94	95.503	129.99	174.507
3.9425	95.411	129.975	174.614
3.945	95.3195	129.96	174.72
3.9475	95.2284	129.945	174.827
3.95	95.1378	129.929	174.933
3.9525	95.0477	129.913	175.039
3.955	94.958	129.897	175.145
3.9575	94.8688	129.881	175.251
3.96	94.7801	129.864	175.356
3.9625	94.6918	129.847	175.461
3.965	94.604	129.829	175.567
3.9675	94.5166	129.812	175.672
3.97	94.4297	129.794	175.777
3.9725	94.3432	129.776	175.881
3.975	94.2572	129.757	175.986
3.9775	94.1716	129.738	176.09
3.98	94.0865	129.719	176.194
3.9825	94.0019	129.7	176.298
3.985	93.9177	129.68	176.402
3.9875	93.8339	129.661	176.506
3.99	93.7506	129.64	176.609
3.9925	93.6678	129.62	176.712
3.995	93.5853	129.599	176.815
3.9975	93.5034	129.578	176.918
4	93.4218	129.557	177.021
4.0025	93.3407	129.536	177.123
4.005	93.2601	129.514	177.226
4.0075	93.1799	129.492	177.328
4.01	93.1001	129.47	177.43
4.0125	93.0208	129.448	177.532
4.015	92.9419	129.425	177.633
4.0175	92.8634	129.402	177.735
4.02	92.7854	129.379	177.836
4.0225	92.7078	129.355	177.937
4.025	92.6306	129.331	178.038
4.0275	92.5539	129.308	178.139
4.03	92.4776	129.283	178.239
4.0325	92.4017	129.259	178.339
4.035	92.3262	129.234	178.44
4.0375	92.2512	129.209	178.539
4.04	92.1766	129.184	178.639
4.0425	92.1024	129.159	178.739
4.045	92.0286	129.133	178.838
4.0475	91.9553	129.107	178.937
4.05	91.8824	129.081	179.036
4.0525	91.8099	129.055	179.135
4.055	91.7378	129.028	179.234
4.0575	91.6661	129.002	179.332
4.06	91.5949	128.975	179.43
4.0625	91.524	128.947	179.529
4.065	91.4536	128.92	179.626
4.0675	91.3836	128.892	179.724
4.07	91.314	128.864	179.822
4.0725	91.2448	128.836	179.919
4.075	91.176	128.808	180.016
4.0775	91.1076	128.78	180.113
4.08	91.0396	128.751	180.21
4.0825	90.9721	128.722	180.306
4.085	90.9049	128.693	180.402
4.0875	90.8381	128.663	180.499
4.09	90.7718	128.634	180.594
4.0925	90.7058	128.604	180.69
4.095	90.6402	128.574	180.786
4.0975	90.5751	128.544	180.881
4.1	90.5103	128.513	180.976
4.1025	90.4459	128.483	181.071
4.105	90.3819	128.452	181.166
4.1075	90.3183	128.421	181.261
4.11	90.2551	128.39	181.355
4.1125	90.1923	128.359	181.449
4.115	90.1299	128.327	181.543
4.1175	90.0679	128.295	181.637
4.12	90.0062	128.263	181.731
4.1225	89.945	128.231	181.824
4.125	89.8841	128.199	181.917
4.1275	89.8236	128.166	182.01
4.13	89.7635	128.134	182.103
4.1325	89.7038	128.101	182.196
4.135	89.6445	128.068	182.288
4.1375	89.5855	128.034	182.38
4.14	89.5269	128.001	182.472
4.1425	89.4687	127.967	182.564
4.145	89.4109	127.934	182.656
4.1475	89.3534	127.9	182.747
4.15	89.2963	127.865	182.838
4.1525	89.2396	127.831	182.929
4.155	89.1833	127.797	183.02
4.1575	89.1273	127.762	183.111
4.16	89.0717	127.727	183.201
4.1625	89.0164	127.692	183.291
4.165	88.9616	127.657	183.381
4.1675	88.9071	127.622	183.471
4.17	88.8529	127.586	183.561
4.1725	88.7992	127.551	183.65
4.175	88.7457	127.515	183.739
4.1775	88.6927	127.479	183.828
4.18	88.64	127.443	183.917
4.1825	88.5876	127.407	184.006
4.185	88.5357	127.37	184.094
4.1875	88.484	127.334	184.182
4.19	88.4328	127.297	184.27
4.1925	88.3819	127.26	184.358
4.195	88.3313	127.223	184.446
4.1975	88.2811	127.186	184.533
4.2	88.2312	127.148	184.62
4.2025	88.1817	127.111	184.707
4.205	88.1325	127.073	184.794
4.2075	88.0837	127.035	184.881
4.21	88.0353	126.998	184.967
4.2125	87.9871	126.959	185.053
4.215	87.9394	126.921	185.139
4.2175	87.8919	126.883	185.225
4.22	87.8448	126.844	185.311
4.2225	87.7981	126.806	185.396
4.225	87.7516	126.767	185.481
4.2275	87.7056	126.728	185.566
4.23	87.6598	126.689	185.651
4.2325	87.6144	126.65	185.736
4.235	87.5693	126.611	185.82
4.2375	87.5246	126.571	185.904
4.24	87.4802	126.532	185.988
4.2425	87.4361	126.492	186.072
4.245	87.3924	126.452	186.155
4.2475	87.349	126.412	186.239
4.25	87.3059	126.372	186.322
4.2525	87.2631	126.332	186.405
4.255	87.2207	126.292	186.487
4.2575	87.1786	126.252	186.57
4.26	87.1368	126.211	186.652
4.2625	87.0953	126.17	186.734
4.265	87.0542	126.13	186.816
4.2675	87.0134	126.089	186.898
4.27	86.9728	126.048	186.979
4.2725	86.9327	126.007	187.061
4.275	86.8928	125.965	187.142
4.2775	86.8532	125.924	187.223
4.28	86.814	125.883	187.303
4.2825	86.7751	125.841	187.384
4.285	86.7365	125.799	187.464
4.2875	86.6982	125.758	187.544
4.29	86.6602	125.716	187.624
4.2925	86.6225	125.674	187.704
4.295	86.5851	125.632	187.783
4.2975	86.5481	125.59	187.862
4.3	86.5113	125.547	187.941
4.3025	86.4749	125.505	188.02
4.305	86.4387	125.462	188.099
4.3075	86.4029	125.42	188.177
4.31	86.3673	125.377	188.256
4.3125	86.3321	125.334	188.334
4.315	86.2971	125.291	188.411
4.3175	86.2625	125.248	188.489
4.32	86.2282	125.205	188.566
4.3225	86.1941	125.162	188.644
4.325	86.1604	125.119	188.721
4.3275	86.1269	125.076	188.797
4.33	86.0937	125.032	188.874
4.3325	86.0609	124.989	188.95
4.335	86.0283	124.945	189.027
4.3375	85.996	124.901	189.103
4.34	85.964	124.858	189.178
4.3425	85.9323	124.814	189.254
4.345	85.9008	124.77	189.329
4.3475	85.8697	124.726	189.404
4.35	85.8388	124.682	189.479
4.3525	85.8083	124.638	189.554
4.355	85.778	124.593	189.629
4.3575	85.748	124.549	189.703
4.36	85.7182	124.505	189.777
4.3625	85.6888	124.46	189.851
4.365	85.6596	124.416	189.925
4.3675	85.6307	124.371	189.998
4.37	85.6021	124.326	190.072
4.3725	85.5738	124.281	190.145
4.375	85.5457	124.237	190.218
4.3775	85.5179	124.192	190.29
4.38	85.4904	124.147	190.363
4.3825	85.4632	124.102	190.435
4.385	85.4362	124.056	190.507
4.3875	85.4095	124.011	190.579
4.39	85.3831	123.966	190.651
4.3925	85.3569	123.921	190.723
4.395	85.331	123.875	190.794
4.3975	85.3054	123.83	190.865
4.4	85.28	123.784	190.936
4.4025	85.2549	123.739	191.006
4.405	85.23	123.693	191.077
4.4075	85.2055	123.647	191.147
4.41	85.1811	123.602	191.217
4.4125	85.1571	123.556	191.287
4.415	85.1333	123.51	191.357
4.4175	85.1097	123.464	191.426
4.42	85.0864	123.418	191.496
4.4225	85.0634	123.372	191.565
4.425	85.0406	123.326	191.634
4.4275	85.0181	123.28	191.702
4.43	84.9958	123.233	191.771
4.4325	84.9738	123.187	191.839
4.435	84.9521	123.141	191.907
4.4375	84.9305	123.095	191.975
4.44	84.9093	123.048	192.043
4.4425	84.8882	123.002	192.11
4.445	84.8675	122.955	192.177
4.4475	84.8469	122.909	192.244
4.45	84.8267	122.862	192.311
4.4525	84.8066	122.815	192.378
4.455	84.7868	122.769	192.444
4.4575	84.7673	122.722	192.511
4.46	84.748	122.675	192.577
4.4625	84.7289	122.628	192.643
4.465	84.7101	122.582	192.708
4.4675	84.6915	122.535	192.774
4.47	84.6731	122.488	192.839
4.4725	84.655	122.441	192.904
4.475	84.6371	122.394	192.969
4.4775	84.6195	122.347	193.034
4.48	84.602	122.3	193.098
4.4825	84.5849	122.253	193.162
4.485	84.5679	122.206	193.226
4.4875	84.5512	122.158	193.29
4.49	84.5347	122.111	193.354
4.4925	84.5185	122.064	193.418
4.495	84.5024	122.017	193.481
4.4975	84.4866	121.969	193.544
4.5	84.471	121.922	193.607
4.5025	84.4557	121.875	193.67
4.505	84.4406	121.827	193.732
4.5075	84.4257	121.78	193.794
4.51	84.411	121.733	193.856
4.5125	84.3965	121.685	193.918
4.515	84.3823	121.638	193.98
4.5175	84.3683	121.59	194.042
4.52	84.3545	121.543	194.103
4.5225	84.3409	121.495	194.164
4.525	84.3275	121.447	194.225
4.5275	84.3144	121.4	194.286
4.53	84.3015	121.352	194.346
4.5325	84.2887	121.305	194.407
4.535	84.2762	121.257	194.467
4.5375	84.264	121.209	194.527
4.54	84.2519	121.162	194.586
4.5425	84.24	121.114	194.646
4.545	84.2284	121.066	194.705
4.5475	84.2169	121.018	194.765
4.55	84.2057	120.971	194.824
4.5525	84.1947	120.923	194.882
4.555	84.1838	120.875	194.941
4.5575	84.1732	120.827	194.999
4.56	84.1628	120.78	195.058
4.5625	84.1526	120.732	195.116
4.565	84.1426	120.684	195.174
4.5675	84.1328	120.636	195.231
4.57	84.1232	120.588	195.289
4.5725	84.1138	120.54	195.346
4.575	84.1046	120.492	195.403
4.5775	84.0956	120.445	195.46
4.58	84.0868	120.397	195.517
4.5825	84.0782	120.349	195.573
4.585	84.0698	120.301	195.629
4.5875	84.0616	120.253	195.685
4.59	84.0536	120.205	195.741
4.5925	84.0458	120.157	195.797
4.595	84.0382	120.109	195.853
4.5975	84.0307	120.061	195.908
4.6	84.0235	120.013	195.963
4.6025	84.0165	119.965	196.018
4.605	84.0096	119.917	196.073
4.6075	84.0029	119.869	196.128
4.61	83.9964	119.822	196.182
4.6125	83.9902	119.774	196.236
4.615	83.984	119.726	196.29
4.6175	83.9781	119.678	196.344
4.62	83.9724	119.63	196.398
4.6225	83.9668	119.582	196.451
4.625	83.9615	119.534	196.505
4.6275	83.9563	119.486	196.558
4.63	83.9513	119.438	196.611
4.6325	83.9465	119.39	196.663
4.635	83.9418	119.342	196.716
4.6375	83.9374	119.294	196.768
4.64	83.9331	119.246	196.821
4.6425	83.929	119.199	196.873
4.645	83.9251	119.151	196.924
4.6475	83.9213	119.103	196.976
4.65	83.9177	119.055	197.027
4.6525	83.9143	119.007	197.079
4.655	83.9111	118.959	197.13
4.6575	83.9081	118.911	197.181
4.66	83.9052	118.863	197.231
4.6625	83.9025	118.816	197.282
4.665	83.8999	118.768	197.332
4.6675	83.8976	118.72	197.382
4.67	83.8954	118.672	197.432
4.6725	83.8934	118.624	197.482
4.675	83.8915	118.577	197.532
4.6775	83.8898	118.529	197.581
4.68	83.8883	118.481	197.63
4.6825	83.8869	118.434	197.68
4.685	83.8857	118.386	197.728
4.6875	83.8847	118.338	197.777
4.69	83.8838	118.29	197.826
4.6925	83.8831	118.243	197.874
4.695	83.8826	118.195	197.922
4.6975	83.8822	118.148	197.97
4.7	83.882	118.1	198.018
4.7025	83.8819	118.052	198.066
4.705	83.882	118.005	198.113
4.7075	83.8823	117.957	198.16
4.71	83.8827	117.91	198.208
4.7125	83.8833	117.862	198.254
4.715	83.884	117.815	198.301
4.7175	83.8849	117.767	198.348
4.72	83.8859	117.72	198.394
4.7225	83.8871	117.672	198.44
4.725	83.8885	117.625	198.486
4.7275	83.89	117.578	198.532
4.73	83.8916	117.53	198.578
4.7325	83.8934	117.483	198.623
4.735	83.8954	117.436	198.669
4.7375	83.8975	117.389	198.714
4.74	83.8997	117.341	198.759
4.7425	83.9021	117.294	198.804
4.745	83.9047	117.247	198.848
4.7475	83.9074	117.2	198.893
4.75	83.9102	117.153	198.937
4.7525	83.9132	117.105	198.981
4.755	83.9163	117.058	199.025
4.7575	83.9196	117.011	199.069
4.76	83.923	116.964	199.113
4.7625	83.9266	116.917	199.156
4.765	83.9303	116.87	199.199
4.7675	83.9341	116.823	199.242
4.77	83.9381	116.776	199.285
4.7725	83.9423	116.73	199.328
4.775	83.9465	116.683	199.371
4.7775	83.9509	116.636	199.413
4.78	83.9555	116.589	199.455
4.7825	83.9602	116.542	199.497
4.785	83.965	116.496	199.539
4.7875	83.9699	116.449	199.581
4.79	83.975	116.402	199.623
4.7925	83.9802	116.356	199.664
4.795	83.9856	116.309	199.705
4.7975	83.9911	116.263	199.746
4.8	83.9967	116.216	199.787
4.8025	84.0025	116.17	199.828
4.805	84.0084	116.123	199.868
4.8075	84.0144	116.077	199.909
4.81	84.0205	116.03	199.949
4.8125	84.0268	115.984	199.989
4.815	84.0332	115.938	200.029
4.8175	84.0397	115.892	200.069
4.82	84.0464	115.845	200.108
4.8225	84.0532	115.799	200.148
4.825	84.0601	115.753	200.187
4.8275	84.0671	115.707	200.226
4.83	84.0743	115.661	200.265
4.8325	84.0816	115.615	200.304
4.835	84.089	115.569	200.342
4.8375	84.0966	115.523	200.381
4.84	84.1042	115.477	200.419
4.8425	84.112	115.431	200.457
4.845	84.1199	115.385	200.495
4.8475	84.1279	115.339	200.533
4.85	84.1361	115.294	200.57
4.8525	84.1443	115.248	200.608
4.855	84.1527	115.202	200.645
4.8575	84.1612	115.157	200.682
4.86	84.1698	115.111	200.719
4.8625	84.1786	115.066	200.756
4.865	84.1874	115.02	200.792
4.8675	84.1964	114.975	200.829
4.87	84.2055	114.929	200.865
4.8725	84.2147	114.884	200.901
4.875	84.224	114.839	200.937
4.8775	84.2334	114.793	200.973
4.88	84.2429	114.748	201.009
4.8825	84.2526	114.703	201.045
4.885	84.2624	114.658	201.08
4.8875	84.2722	114.613	201.115
4.89	84.2822	114.568	201.15
4.8925	84.2923	114.523	201.185
4.895	84.3025	114.478	201.22
4.8975	84.3128	114.433	201.254
4.9	84.3232	114.388	201.289
4.9025	84.3338	114.343	201.323
4.905	84.3444	114.298	201.357
4.9075	84.3551	114.254	201.391
4.91	84.366	114.209	201.425
4.9125	84.3769	114.164	201.459
4.915	84.388	114.12	201.492
4.9175	84.3991	114.075	201.526
4.92	84.4104	114.031	201.559
4.9225	84.4218	113.986	201.592
4.925	84.4332	113.942	201.625
4.9275	84.4448	113.898	201.657
4.93	84.4565	113.853	201.69
4.9325	84.4682	113.809	201.723
4.935	84.4801	113.765	201.755
4.9375	84.4921	113.721	201.787
4.94	84.5042	113.677	201.819
4.9425	84.5163	113.633	201.851
4.945	84.5286	113.589	201.882
4.9475	84.541	113.545	201.914
4.95	84.5534	113.501	201.945
4.9525	84.566	113.457	201.977
4.955	84.5786	113.414	202.008
4.9575	84.5914	113.37	202.039
4.96	84.6042	113.326	202.07
4.9625	84.6172	113.283	202.1
4.965	84.6302	113.239	202.131
4.9675	84.6433	113.196	202.161
4.97	84.6565	113.152	202.191
4.9725	84.6698	113.109	202.221
4.975	84.6832	113.066	202.251
4.9775	84.6967	113.022	202.281
4.98	84.7103	112.979	202.311
4.9825	84.724	112.936	202.34
4.985	84.7377	112.893	202.37
4.9875	84.7516	112.85	202.399
4.99	84.7655	112.807	202.428
4.9925	84.7796	112.764	202.457
4.995	84.7937	112.721	202.485
4.9975	84.8079	112.678	202.514
5	84.8221	112.635	202.543
5.0025	84.8365	112.593	202.571
5.005	84.851	112.55	202.599
5.0075	84.8655	112.507	202.627
5.01	84.8801	112.465	202.655
5.0125	84.8949	112.422	202.683
5.015	84.9096	112.38	202.71
5.0175	84.9245	112.338	202.738
5.02	84.9395	112.295	202.765
5.0225	84.9545	112.253	202.793
5.025	84.9696	112.211	202.82
5.0275	84.9848	112.169	202.847
5.03	85.0001	112.127	202.873
5.0325	85.0155	112.085	202.9
5.035	85.0309	112.043	202.926
5.0375	85.0465	112.001	202.953
5.04	85.0621	111.959	202.979
5.0425	85.0777	111.917	203.005
5.045	85.0935	111.875	203.031
5.0475	85.1093	111.834	203.057
5.05	85.1252	111.792	203.083
5.0525	85.1412	111.751	203.108
5.055	85.1573	111.709	203.134
5.0575	85.1734	111.668	203.159
5.06	85.1896	111.626	203.184
5.0625	85.2059	111.585	203.209
5.065	85.2222	111.544	203.234
5.0675	85.2387	111.503	203.259
5.07	85.2552	111.461	203.283
5.0725	85.2717	111.42	203.308
5.075	85.2884	111.379	203.332
5.0775	85.3051	111.338	203.356
5.08	85.3219	111.298	203.381
5.0825	85.3388	111.257	203.404
5.085	85.3557	111.216	203.428
5.0875	85.3727	111.175	203.452
5.09	85.3897	111.135	203.476
5.0925	85.4069	111.094	203.499
5.095	85.4241	111.054	203.522
5.0975	85.4414	111.013	203.545
5.1	85.4587	110.973	203.568
5.1025	85.4761	110.933	203.591
5.105	85.4936	110.892	203.614
5.1075	85.5111	110.852	203.637
5.11	85.5287	110.812	203.659
5.1125	85.5464	110.772	203.682
5.115	85.5641	110.732	203.704
5.1175	85.5819	110.692	203.726
5.12	85.5998	110.652	203.748
5.1225	85.6177	110.612	203.77
5.125	85.6357	110.573	203.792
5.1275	85.6537	110.533	203.813
5.13	85.6718	110.493	203.835
5.1325	85.69	110.454	203.856
5.135	85.7082	110.414	203.878
5.1375	85.7265	110.375	203.899
5.14	85.7449	110.336	203.92
5.1425	85.7633	110.296	203.941
5.145	85.7817	110.257	203.961
5.1475	85.8003	110.218	203.982
5.15	85.8189	110.179	204.002
5.1525	85.8375	110.14	204.023
5.155	85.8562	110.101	204.043
5.1575	85.875	110.062	204.063
5.16	85.8938	110.023	204.083
5.1625	85.9127	109.984	204.103
5.165	85.9316	109.946	204.123
5.1675	85.9506	109.907	204.143
5.17	85.9696	109.868	204.162
5.1725	85.9887	109.83	204.181
5.175	86.0079	109.791	204.201
5.1775	86.0271	109.753	204.22
5.18	86.0463	109.715	204.239
5.1825	86.0656	109.676	204.258
5.185	86.085	109.638	204.277
5.1875	86.1044	109.6	204.295
5.19	86.1239	109.562	204.314
5.1925	86.1434	109.524	204.332
5.195	86.163	109.486	204.351
5.1975	86.1826	109.448	204.369
5.2	86.2023	109.411	204.387
5.2025	86.222	109.373	204.405
5.205	86.2418	109.335	204.423
5.2075	86.2616	109.298	204.441
5.21	86.2815	109.26	204.458
5.2125	86.3014	109.223	204.476
5.215	86.3214	109.185	204.493
5.2175	86.3414	109.148	204.511
5.22	86.3614	109.111	204.528
5.2225	86.3815	109.074	204.545
5.225	86.4017	109.037	204.562
5.2275	86.4219	109	204.579
5.23	86.4421	108.963	204.595
5.2325	86.4624	108.926	204.612
5.235	86.4828	108.889	204.628
5.2375	86.5032	108.852	204.645
5.24	86.5236	108.815	204.661
5.2425	86.5441	108.779	204.677
5.245	86.5646	108.742	204.693
5.2475	86.5851	108.706	204.709
5.25	86.6057	108.669	204.725
5.2525	86.6264	108.633	204.741
5.255	86.6471	108.597	204.756
5.2575	86.6678	108.56	204.772
5.26	86.6886	108.524	204.787
5.2625	86.7094	108.488	204.802
5.265	86.7302	108.452	204.818
5.2675	86.7511	108.416	204.833
5.27	86.772	108.38	204.848
5.2725	86.793	108.345	204.862
5.275	86.814	108.309	204.877
5.2775	86.8351	108.273	204.892
5.28	86.8561	108.238	204.906
5.2825	86.8773	108.202	204.921
5.285	86.8984	108.167	204.935
5.2875	86.9196	108.131	204.949
5.29	86.9409	108.096	204.963
5.2925	86.9621	108.061	204.977
5.295	86.9835	108.025	204.991
5.2975	87.0048	107.99	205.005
5.3	87.0262	107.955	205.019
5.3025	87.0476	107.92	205.032
5.305	87.069	107.885	205.046
5.3075	87.0905	107.851	205.059
5.31	87.1121	107.816	205.072
5.3125	87.1336	107.781	205.085
5.315	87.1552	107.746	205.098
5.3175	87.1768	107.712	205.111
5.32	87.1985	107.677	205.124
5.3225	87.2202	107.643	205.137
5.325	87.2419	107.609	205.15
5.3275	87.2636	107.574	205.162
5.33	87.2854	107.54	205.175
5.3325	87.3073	107.506	205.187
5.335	87.3291	107.472	205.199
5.3375	87.351	107.438	205.211
5.34	87.3729	107.404	205.223
5.3425	87.3948	107.37	205.235
5.345	87.4168	107.336	205.247
5.3475	87.4388	107.302	205.259
5.35	87.4608	107.269	205.27
5.3525	87.4829	107.235	205.282
5.355	87.505	107.202	205.293
5.3575	87.5271	107.168	205.305
5.36	87.5492	107.135	205.316
5.3625	87.5714	107.102	205.327
5.365	87.5936	107.068	205.338
5.3675	87.6158	107.035	205.349
5.37	87.6381	107.002	205.36
5.3725	87.6603	106.969	205.371
5.375	87.6826	106.936	205.381
5.3775	87.705	106.903	205.392
5.38	87.7273	106.87	205.402
5.3825	87.7497	106.838	205.413
5.385	87.7721	106.805	205.423
5.3875	87.7945	106.772	205.433
5.39	87.817	106.74	205.443
5.3925	87.8395	106.707	205.453
5.395	87.862	106.675	205.463
5.3975	87.8845	106.643	205.473
5.4	87.907	106.61	205.483
5.4025	87.9296	106.578	205.492
5.405	87.9522	106.546	205.502
5.4075	87.9748	106.514	205.511
5.41	87.9975	106.482	205.521
5.4125	88.0201	106.45	205.53
5.415	88.0428	106.418	205.539
5.4175	88.0655	106.386	205.548
5.42	88.0882	106.355	205.557
5.4225	88.111	106.323	205.566
5.425	88.1337	106.291	205.575
5.4275	88.1565	106.26	205.584
5.43	88.1793	106.229	205.592
5.4325	88.2021	106.197	205.601
5.435	88.225	106.166	205.609
5.4375	88.2478	106.135	205.618
5.44	88.2707	106.103	205.626
5.4425	88.2936	106.072	205.634
5.445	88.3165	106.041	205.642
5.4475	88.3394	106.01	205.65
5.45	88.3624	105.98	205.658
5.4525	88.3854	105.949	205.666
5.455	88.4083	105.918	205.674
5.4575	88.4313	105.887	205.681
5.46	88.4543	105.857	205.689
5.4625	88.4774	105.826	205.696
5.465	88.5004	105.796	205.704
5.4675	88.5235	105.765	205.711
5.47	88.5466	105.735	205.718
5.4725	88.5697	105.705	205.725
5.475	88.5928	105.675	205.732
5.4775	88.6159	105.645	205.739
5.48	88.639	105.615	205.746
5.4825	88.6622	105.585	205.753
5.485	88.6853	105.555	205.76
5.4875	88.7085	105.525	205.767
5.49	88.7317	105.495	205.773
5.4925	88.7549	105.466	205.78
5.495	88.7781	105.436	205.786
5.4975	88.8014	105.406	205.792
5.5	88.8246	105.377	205.799
5.5025	88.8479	105.347	205.805
5.505	88.8711	105.318	205.811
5.5075	88.8944	105.289	205.817
5.51	88.9177	105.26	205.823
5.5125	88.941	105.231	205.828
5.515	88.9643	105.201	205.834
5.5175	88.9876	105.172	205.84
5.52	89.0109	105.144	205.846
5.5225	89.0343	105.115	205.851
5.525	89.0576	105.086	205.856
5.5275	89.081	105.057	205.862
5.53	89.1043	105.029	205.867
5.5325	89.1277	105	205.872
5.535	89.1511	104.971	205.877
5.5375	89.1745	104.943	205.882
5.54	89.1979	104.915	205.887
5.5425	89.2213	104.886	205.892
5.545	89.2447	104.858	205.897
5.5475	89.2681	104.83	205.902
5.55	89.2916	104.802	205.907
5.5525	89.315	104.774	205.911
5.555	89.3385	104.746	205.916
5.5575	89.3619	104.718	205.92
5.56	89.3854	104.69	205.924
5.5625	89.4088	104.662	205.929
5.565	89.4323	104.635	205.933
5.5675	89.4558	104.607	205.937
5.57	89.4793	104.58	205.941
5.5725	89.5028	104.552	205.945
5.575	89.5262	104.525	205.949
5.5775	89.5497	104.497	205.953
5.58	89.5732	104.47	205.957
5.5825	89.5967	104.443	205.96
5.585	89.6203	104.416	205.964
5.5875	89.6438	104.389	205.967
5.59	89.6673	104.362	205.971
5.5925	89.6908	104.335	205.974
5.595	89.7143	104.308	205.978
5.5975	89.7378	104.281	205.981
5.6	89.7614	104.255	205.984
5.6025	89.7849	104.228	205.987
5.605	89.8084	104.201	205.99
5.6075	89.832	104.175	205.993
5.61	89.8555	104.148	205.996
5.6125	89.879	104.122	205.999
5.615	89.9026	104.096	206.002
5.6175	89.9261	104.069	206.004
5.62	89.9497	104.043	206.007
5.6225	89.9732	104.017	206.01
5.625	89.9968	103.991	206.012
5.6275	90.0203	103.965	206.015
5.63	90.0438	103.939	206.017
5.6325	90.0674	103.913	206.019
5.635	90.0909	103.888	206.021
5.6375	90.1145	103.862	206.024
5.64	90.138	103.836	206.026
5.6425	90.1616	103.811	206.028
5.645	90.1851	103.785	206.03
5.6475	90.2086	103.76	206.032
5.65	90.2322	103.734	206.033
5.6525	90.2557	103.709	206.035
5.655	90.2793	103.684	206.037
5.6575	90.3028	103.659	206.039
5.66	90.3263	103.634	206.04
5.6625	90.3498	103.609	206.042
5.665	90.3734	103.584	206.043
5.6675	90.3969	103.559	206.044
5.67	90.4204	103.534	206.046
5.6725	90.4439	103.509	206.047
5.675	90.4674	103.484	206.048
5.6775	90.4909	103.46	206.049
5.68	90.5145	103.435	206.05
5.6825	90.538	103.411	206.051
5.685	90.5615	103.386	206.052
5.6875	90.5849	103.362	206.053
5.69	90.6084	103.338	206.054
5.6925	90.6319	103.313	206.055
5.695	90.6554	103.289	206.055
5.6975	90.6789	103.265	206.056
5.7	90.7023	103.241	206.057
5.7025	90.7258	103.217	206.057
5.705	90.7493	103.193	206.057
5.7075	90.7727	103.169	206.058
5.71	90.7962	103.146	206.058
5.7125	90.8196	103.122	206.058
5.715	90.843	103.098	206.059
5.7175	90.8665	103.075	206.059
5.72	90.8899	103.051	206.059
5.7225	90.9133	103.028	206.059
5.725	90.9367	103.004	206.059
5.7275	90.9601	102.981	206.059
5.73	90.9835	102.958	206.059
5.7325	91.0069	102.935	206.058
5.735	91.0302	102.912	206.058
5.7375	91.0536	102.889	206.058
5.74	91.077	102.866	206.057
5.7425	91.1003	102.843	206.057
5.745	91.1237	102.82	206.057
5.7475	91.147	102.797	206.056
5.75	91.1703	102.774	206.055
5.7525	91.1936	102.752	206.055
5.755	91.2169	102.729	206.054
5.7575	91.2402	102.707	206.053
5.76	91.2635	102.684	206.052
5.7625	91.2868	102.662	206.052
5.765	91.3101	102.639	206.051
5.7675	91.3333	102.617	206.05
5.77	91.3566	102.595	206.049
5.7725	91.3798	102.573	206.047
5.775	91.403	102.551	206.046
5.7775	91.4262	102.529	206.045
5.78	91.4495	102.507	206.044
5.7825	91.4726	102.485	206.042
5.785	91.4958	102.463	206.041
5.7875	91.519	102.441	206.04
5.79	91.5422	102.42	206.038
5.7925	91.5653	102.398	206.037
5.795	91.5885	102.376	206.035
5.7975	91.6116	102.355	206.034
5.8	91.6347	102.333	206.032
5.8025	91.6578	102.312	206.03
5.805	91.6809	102.291	206.028
5.8075	91.704	102.27	206.026
5.81	91.727	102.248	206.025
5.8125	91.7501	102.227	206.023
5.815	91.7731	102.206	206.021
5.8175	91.7961	102.185	206.019
5.82	91.8191	102.164	206.017
5.8225	91.8421	102.143	206.014
5.825	91.8651	102.123	206.012
5.8275	91.8881	102.102	206.01
5.83	91.9111	102.081	206.008
5.8325	91.934	102.061	206.005
5.835	91.9569	102.04	206.003
5.8375	91.9798	102.02	206.001
5.84	92.0027	101.999	205.998
5.8425	92.0256	101.979	205.996
5.845	92.0485	101.958	205.993
5.8475	92.0714	101.938	205.99
5.85	92.0942	101.918	205.988
5.8525	92.117	101.898	205.985
5.855	92.1398	101.878	205.982
5.8575	92.1626	101.858	205.979
5.86	92.1854	101.838	205.977
5.8625	92.2082	101.818	205.974
5.865	92.2309	101.798	205.971
5.8675	92.2536	101.779	205.968
5.87	92.2764	101.759	205.965
5.8725	92.2991	101.739	205.962
5.875	92.3217	101.72	205.959
5.8775	92.3444	101.7	205.955
5.88	92.3671	101.681	205.952
5.8825	92.3897	101.661	205.949
5.885	92.4123	101.642	205.946
5.8875	92.4349	101.623	205.942
5.89	92.4575	101.604	205.939
5.8925	92.4801	101.585	205.935
5.895	92.5026	101.565	205.932
5.8975	92.5251	101.546	205.928
5.9	92.5476	101.528	205.925
5.9025	92.5701	101.509	205.921
5.905	92.5926	101.49	205.918
5.9075	92.6151	101.471	205.914
5.91	92.6375	101.452	205.91
5.9125	92.6599	101.434	205.906
5.915	92.6823	101.415	205.903
5.9175	92.7047	101.397	205.899
5.92	92.7271	101.378	205.895
5.9225	92.7494	101.36	205.891
5.925	92.7718	101.341	205.887
5.9275	92.7941	101.323	205.883
5.93	92.8164	101.305	205.879
5.9325	92.8386	101.287	205.875
5.935	92.8609	101.269	205.87
5.9375	92.8831	101.251	205.866
5.94	92.9053	101.233	205.862
5.9425	92.9275	101.215	205.858
5.945	92.9497	101.197	205.854
5.9475	92.9718	101.179	205.849
5.95	92.994	101.161	205.845
5.9525	93.0161	101.144	205.84
5.955	93.0382	101.126	205.836
5.9575	93.0602	101.108	205.831
5.96	93.0823	101.091	205.827
5.9625	93.1043	101.073	205.822
5.965	93.1263	101.056	205.818
5.9675	93.1483	101.039	205.813
5.97	93.1703	101.021	205.808
5.9725	93.1922	101.004	205.804
5.975	93.2141	100.987	205.799
5.9775	93.236	100.97	205.794
5.98	93.2579	100.953	205.789
5.9825	93.2798	100.936	205.784
5.985	93.3016	100.919	205.779
5.9875	93.3234	100.902	205.774
5.99	93.3452	100.885	205.77
5.9925	93.367	100.869	205.764
5.995	93.3888	100.852	205.759
5.9975	93.4105	100.835	205.754
6	93.4322	100.819	205.749
6.0025	93.4539	100.802	205.744
6.005	93.4755	100.786	205.739
6.0075	93.4972	100.769	205.734
6.01	93.5188	100.753	205.728
6.0125	93.5404	100.737	205.723
6.015	93.5619	100.72	205.718
6.0175	93.5835	100.704	205.712
6.02	93.605	100.688	205.707
6.0225	93.6265	100.672	205.702
6.025	93.648	100.656	205.696
6.0275	93.6694	100.64	205.691
6.03	93.6909	100.624	205.685
6.0325	93.7123	100.608	205.68
6.035	93.7337	100.592	205.674
6.0375	93.755	100.577	205.668
6.04	93.7764	100.561	205.663
6.0425	93.7977	100.545	205.657
6.045	93.8189	100.53	205.651
6.0475	93.8402	100.514	205.645
6.05	93.8614	100.499	205.64
6.0525	93.8827	100.483	205.634
6.055	93.9038	100.468	205.628
6.0575	93.925	100.453	205.622
6.06	93.9462	100.438	205.616
6.0625	93.9673	100.422	205.61
6.065	93.9884	100.407	205.604
6.0675	94.0094	100.392	205.598
6.07	94.0305	100.377	205.592
6.0725	94.0515	100.362	205.586
6.075	94.0725	100.347	205.58
6.0775	94.0934	100.333	205.574
6.08	94.1144	100.318	205.568
6.0825	94.1353	100.303	205.562
6.085	94.1562	100.288	205.555
6.0875	94.177	100.274	205.549
6.09	94.1979	100.259	205.543
6.0925	94.2187	100.245	205.537
6.095	94.2395	100.23	205.53
6.0975	94.2602	100.216	205.524
6.1	94.281	100.201	205.518
6.1025	94.3017	100.187	205.511
6.105	94.3223	100.173	205.505
6.1075	94.343	100.159	205.498
6.11	94.3636	100.145	205.492
6.1125	94.3842	100.13	205.485
6.115	94.4048	100.116	205.479
6.1175	94.4253	100.102	205.472
6.12	94.4459	100.089	205.466
6.1225	94.4664	100.075	205.459
6.125	94.4868	100.061	205.452
6.1275	94.5073	100.047	205.446
6.13	94.5277	100.033	205.439
6.1325	94.5481	100.02	205.432
6.135	94.5684	100.006	205.425
6.1375	94.5888	99.9926	205.419
6.14	94.6091	99.9791	205.412
6.1425	94.6294	99.9656	205.405
6.145	94.6496	99.9522	205.398
6.1475	94.6698	99.9389	205.391
6.15	94.69	99.9256	205.384
6.1525	94.7102	99.9123	205.377
6.155	94.7303	99.8992	205.371
6.1575	94.7504	99.886	205.364
6.16	94.7705	99.8729	205.357
6.1625	94.7906	99.8599	205.35
6.165	94.8106	99.8469	205.342
6.1675	94.8306	99.834	205.335
6.17	94.8506	99.8211	205.328
6.1725	94.8705	99.8083	205.321
6.175	94.8904	99.7955	205.314
6.1775	94.9103	99.7828	205.307
6.18	94.9302	99.7701	205.3
6.1825	94.95	99.7575	205.292
6.185	94.9698	99.7449	205.285
6.1875	94.9896	99.7324	205.278
6.19	95.0093	99.72	205.271
6.1925	95.0291	99.7075	205.263
6.195	95.0487	99.6952	205.256
6.1975	95.0684	99.6829	205.249
6.2	95.088	99.6706	205.241
6.2025	95.1076	99.6584	205.234
6.205	95.1272	99.6462	205.227
6.2075	95.1467	99.6341	205.219
6.21	95.1663	99.622	205.212
6.2125	95.1857	99.61	205.204
6.215	95.2052	99.5981	205.197
6.2175	95.2246	99.5862	205.189
6.22	95.244	99.5743	205.182
6.2225	95.2634	99.5625	205.174
6.225	95.2827	99.5507	205.167
6.2275	95.302	99.539	205.159
6.23	95.3213	99.5273	205.151
6.2325	95.3405	99.5157	205.144
6.235	95.3598	99.5041	205.136
6.2375	95.379	99.4926	205.128
6.24	95.3981	99.4812	205.121
6.2425	95.4172	99.4697	205.113
6.245	95.4363	99.4584	205.105
6.2475	95.4554	99.447	205.098
6.25	95.4744	99.4358	205.09
6.2525	95.4935	99.4245	205.082
6.255	95.5124	99.4134	205.074
6.2575	95.5314	99.4022	205.066
6.26	95.5503	99.3912	205.059
6.2625	95.5692	99.3801	205.051
6.265	95.588	99.3691	205.043
6.2675	95.6069	99.3582	205.035
6.27	95.6257	99.3473	205.027
6.2725	95.6444	99.3365	205.019
6.275	95.6632	99.3257	205.011
6.2775	95.6819	99.3149	205.003
6.28	95.7005	99.3042	204.995
6.2825	95.7192	99.2936	204.987
6.285	95.7378	99.283	204.979
6.2875	95.7564	99.2724	204.971
6.29	95.7749	99.2619	204.963
6.2925	95.7934	99.2515	204.955
6.295	95.8119	99.241	204.947
6.2975	95.8304	99.2307	204.939
6.3	95.8488	99.2204	204.931
6.3025	95.8672	99.2101	204.923
6.305	95.8856	99.1999	204.915
6.3075	95.9039	99.1897	204.906
6.31	95.9222	99.1795	204.898
6.3125	95.9405	99.1695	204.89
6.315	95.9587	99.1594	204.882
6.3175	95.9769	99.1494	204.874
6.32	95.9951	99.1395	204.865
6.3225	96.0132	99.1296	204.857
6.325	96.0313	99.1197	204.849
6.3275	96.0494	99.1099	204.841
6.33	96.0675	99.1001	204.832
6.3325	96.0855	99.0904	204.824
6.335	96.1035	99.0807	204.816
6.3375	96.1214	99.0711	204.807
6.34	96.1393	99.0615	204.799
6.3425	96.1572	99.052	204.791
6.345	96.1751	99.0425	204.782
6.3475	96.1929	99.033	204.774
6.35	96.2107	99.0236	204.766
6.3525	96.2285	99.0143	204.757
6.355	96.2462	99.005	204.749
6.3575	96.2639	98.9957	204.74
6.36	96.2816	98.9865	204.732
6.3625	96.2992	98.9773	204.723
6.365	96.3168	98.9682	204.715
6.3675	96.3344	98.9591	204.707
6.37	96.3519	98.95	204.698
6.3725	96.3694	98.941	204.69
6.375	96.3869	98.9321	204.681
6.3775	96.4043	98.9232	204.673
6.38	96.4217	98.9143	204.664
6.3825	96.4391	98.9055	204.655
6.385	96.4565	98.8967	204.647
6.3875	96.4738	98.8879	204.638
6.39	96.4911	98.8792	204.63
6.3925	96.5083	98.8706	204.621
6.395	96.5255	98.862	204.613
6.3975	96.5427	98.8534	204.604
6.4	96.5599	98.8449	204.595
6.4025	96.577	98.8364	204.587
6.405	96.5941	98.828	204.578
6.4075	96.6111	98.8196	204.569
6.41	96.6281	98.8112	204.561
6.4125	96.6451	98.8029	204.552
6.415	96.6621	98.7947	204.543
6.4175	96.679	98.7864	204.535
6.42	96.6959	98.7782	204.526
6.4225	96.7127	98.7701	204.517
6.425	96.7295	98.762	204.508
6.4275	96.7463	98.754	204.5
6.43	96.7631	98.7459	204.491
6.4325	96.7798	98.738	204.482
6.435	96.7965	98.7301	204.473
6.4375	96.8132	98.7222	204.465
6.44	96.8298	98.7143	204.456
6.4425	96.8464	98.7065	204.447
6.445	96.8629	98.6988	204.438
6.4475	96.8795	98.691	204.43
6.45	96.896	98.6834	204.421
6.4525	96.9124	98.6757	204.412
6.455	96.9288	98.6681	204.403
6.4575	96.9452	98.6606	204.394
6.46	96.9616	98.6531	204.385
6.4625	96.9779	98.6456	204.377
6.465	96.9942	98.6381	204.368
6.4675	97.0105	98.6308	204.359
6.47	97.0267	98.6234	204.35
6.4725	97.0429	98.6161	204.341
6.475	97.059	98.6088	204.332
6.4775	97.0752	98.6016	204.323
6.48	97.0913	98.5944	204.314
6.4825	97.1073	98.5873	204.305
6.485	97.1234	98.5801	204.297
6.4875	97.1393	98.5731	204.288
6.49	97.1553	98.566	204.279
6.4925	97.1712	98.5591	204.27
6.495	97.1871	98.5521	204.261
6.4975	97.203	98.5452	204.252
6.5	97.2188	98.5383	204.243
6.5025	97.2346	98.5315	204.234
6.505	97.2504	98.5247	204.225
6.5075	97.2661	98.5179	204.216
6.51	97.2818	98.5112	204.207
6.5125	97.2974	98.5046	204.198
6.515	97.3131	98.4979	204.189
6.5175	97.3287	98.4913	204.18
6.52	97.3442	98.4848	204.171
6.5225	97.3597	98.4782	204.162
6.525	97.3752	98.4718	204.153
6.5275	97.3907	98.4653	204.144
6.53	97.4061	98.4589	204.135
6.5325	97.4215	98.4526	204.126
6.535	97.4368	98.4462	204.117
6.5375	97.4522	98.4399	204.108
6.54	97.4675	98.4337	204.099
6.5425	97.4827	98.4275	204.09
6.545	97.4979	98.4213	204.081
6.5475	97.5131	98.4152	204.072
6.55	97.5283	98.4091	204.063
6.5525	97.5434	98.403	204.054
6.555	97.5585	98.397	204.045
6.5575	97.5735	98.391	204.035
6.56	97.5886	98.385	204.026
6.5625	97.6035	98.3791	204.017
6.565	97.6185	98.3732	204.008
6.5675	97.6334	98.3674	203.999
6.57	97.6483	98.3616	203.99
6.5725	97.6631	98.3558	203.981
6.575	97.678	98.3501	203.972
6.5775	97.6927	98.3444	203.963
6.58	97.7075	98.3388	203.954
6.5825	97.7222	98.3332	203.945
6.585	97.7369	98.3276	203.936
6.5875	97.7515	98.322	203.926
6.59	97.7661	98.3165	203.917
6.5925	97.7807	98.311	203.908
6.595	97.7953	98.3056	203.899
6.5975	97.8098	98.3002	203.89
6.6	97.8243	98.2948	203.881
6.6025	97.8387	98.2895	203.872
6.605	97.8531	98.2842	203.863
6.6075	97.8675	98.279	203.854
6.61	97.8818	98.2737	203.844
6.6125	97.8961	98.2686	203.835
6.615	97.9104	98.2634	203.826
6.6175	97.9246	98.2583	203.817
6.62	97.9389	98.2532	203.808
6.6225	97.953	98.2482	203.799
6.625	97.9672	98.2432	203.79
6.6275	97.9813	98.2382	203.781
6.63	97.9953	98.2332	203.771
6.6325	98.0094	98.2283	203.762
6.635	98.0234	98.2235	203.753
6.6375	98.0374	98.2186	203.744
6.64	98.0513	98.2138	203.735
6.6425	98.0652	98.2091	203.726
6.645	98.0791	98.2043	203.717
6.6475	98.0929	98.1996	203.707
6.65	98.1067	98.195	203.698
6.6525	98.1205	98.1903	203.689
6.655	98.1342	98.1857	203.68
6.6575	98.1479	98.1812	203.671
6.66	98.1616	98.1766	203.662
6.6625	98.1752	98.1721	203.653
6.665	98.1888	98.1677	203.644
6.6675	98.2023	98.1633	203.634
6.67	98.2159	98.1589	203.625
6.6725	98.2294	98.1545	203.616
6.675	98.2428	98.1502	203.607
6.6775	98.2563	98.1459	203.598
6.68	98.2697	98.1416	203.589
6.6825	98.283	98.1374	203.58
6.685	98.2963	98.1332	203.57
6.6875	98.3096	98.129	203.561
6.69	98.3229	98.1249	203.552
6.6925	98.3361	98.1208	203.543
6.695	98.3493	98.1167	203.534
6.6975	98.3625	98.1127	203.525
6.7	98.3756	98.1087	203.516
6.7025	98.3887	98.1047	203.507
6.705	98.4017	98.1008	203.497
6.7075	98.4148	98.0969	203.488
6.71	98.4278	98.093	203.479
6.7125	98.4407	98.0892	203.47
6.715	98.4536	98.0854	203.461
6.7175	98.4665	98.0816	203.452
6.72	98.4794	98.0779	203.443
6.7225	98.4922	98.0741	203.434
6.725	98.505	98.0705	203.425
6.7275	98.5177	98.0668	203.415
6.73	98.5305	98.0632	203.406
6.7325	98.5431	98.0596	203.397
6.735	98.5558	98.056	203.388
6.7375	98.5684	98.0525	203.379
6.74	98.581	98.049	203.37
6.7425	98.5935	98.0456	203.361
6.745	98.6061	98.0421	203.352
6.7475	98.6185	98.0387	203.343
6.75	98.631	98.0354	203.334
6.7525	98.6434	98.032	203.325
6.755	98.6558	98.0287	203.315
6.7575	98.6681	98.0254	203.306
6.76	98.6805	98.0222	203.297
6.7625	98.6927	98.019	203.288
6.765	98.705	98.0158	203.279
6.7675	98.7172	98.0126	203.27
6.77	98.7294	98.0095	203.261
6.7725	98.7415	98.0064	203.252
6.775	98.7537	98.0033	203.243
6.7775	98.7657	98.0003	203.234
6.78	98.7778	97.9973	203.225
6.7825	98.7898	97.9943	203.216
6.785	98.8018	97.9913	203.207
6.7875	98.8137	97.9884	203.198
6.79	98.8257	97.9855	203.189
6.7925	98.8375	97.9827	203.18
6.795	98.8494	97.9798	203.171
6.7975	98.8612	97.977	203.162
6.8	98.873	97.9743	203.153
6.8025	98.8847	97.9715	203.144
6.805	98.8964	97.9688	203.135
6.8075	98.9081	97.9661	203.126
6.81	98.9198	97.9634	203.117
6.8125	98.9314	97.9608	203.108
6.815	98.943	97.9582	203.099
6.8175	98.9545	97.9556	203.09
6.82	98.966	97.9531	203.081
6.8225	98.9775	97.9506	203.072
6.825	98.989	97.9481	203.063
6.8275	99.0004	97.9456	203.054
6.83	99.0118	97.9432	203.045
6.8325	99.0231	97.9408	203.036
6.835	99.0345	97.9384	203.027
6.8375	99.0457	97.9361	203.018
6.84	99.057	97.9337	203.009
6.8425	99.0682	97.9314	203
6.845	99.0794	97.9292	202.991
6.8475	99.0906	97.9269	202.983
6.85	99.1017	97.9247	202.974
6.8525	99.1128	97.9225	202.965
6.855	99.1238	97.9204	202.956
6.8575	99.1348	97.9182	202.947
6.86	99.1458	97.9161	202.938
6.8625	99.1568	97.9141	202.929
6.865	99.1677	97.912	202.92
6.8675	99.1786	97.91	202.911
6.87	99.1895	97.908	202.903
6.8725	99.2003	97.906	202.894
6.875	99.2111	97.9041	202.885
6.8775	99.2218	97.9022	202.876
6.88	99.2326	97.9003	202.867
6.8825	99.2433	97.8984	202.858
6.885	99.2539	97.8966	202.85
6.8875	99.2646	97.8947	202.841
6.89	99.2752	97.893	202.832
6.8925	99.2857	97.8912	202.823
6.895	99.2962	97.8895	202.814
6.8975	99.3067	97.8878	202.805
6.9	99.3172	97.8861	202.797
6.9025	99.3277	97.8844	202.788
6.905	99.3381	97.8828	202.779
6.9075	99.3484	97.8812	202.77
6.91	99.3588	97.8796	202.762
6.9125	99.3691	97.878	202.753
6.915	99.3793	97.8765	202.744
6.9175	99.3896	97.875	202.735
6.92	99.3998	97.8735	202.727
6.9225	99.41	97.8721	202.718
6.925	99.4201	97.8706	202.709
6.9275	99.4302	97.8692	202.701
6.93	99.4403	97.8678	202.692
6.9325	99.4504	97.8665	202.683
6.935	99.4604	97.8652	202.674
6.9375	99.4704	97.8638	202.666
6.94	99.4803	97.8626	202.657
6.9425	99.4902	97.8613	202.648
6.945	99.5001	97.8601	202.64
6.9475	99.51	97.8589	202.631
6.95	99.5198	97.8577	202.623
6.9525	99.5296	97.8565	202.614
6.955	99.5394	97.8554	202.605
6.9575	99.5491	97.8543	202.597
6.96	99.5588	97.8532	202.588
6.9625	99.5684	97.8521	202.579
6.965	99.5781	97.8511	202.571
6.9675	99.5877	97.85	202.562
6.97	99.5973	97.849	202.554
6.9725	99.6068	97.8481	202.545
6.975	99.6163	97.8471	202.537
6.9775	99.6258	97.8462	202.528
6.98	99.6352	97.8453	202.519
6.9825	99.6446	97.8444	202.511
6.985	99.654	97.8435	202.502
6.9875	99.6634	97.8427	202.494
6.99	99.6727	97.8419	202.485
6.9925	99.682	97.8411	202.477
6.995	99.6912	97.8403	202.468
6.9975	99.7005	97.8396	202.46
7	99.7096	97.8389	202.451
7.0025	99.7188	97.8382	202.443
7.005	99.7279	97.8375	202.435
7.0075	99.737	97.8368	202.426
7.01	99.7461	97.8362	202.418
7.0125	99.7551	97.8356	202.409
7.015	99.7641	97.835	202.401
7.0175	99.7731	97.8344	202.392
7.02	99.7821	97.8339	202.384
7.0225	99.791	97.8334	202.376
7.025	99.7999	97.8329	202.367
7.0275	99.8087	97.8324	202.359
7.03	99.8175	97.8319	202.351
7.0325	99.8263	97.8315	202.342
7.035	99.8351	97.8311	202.334
7.0375	99.8438	97.8307	202.325
7.04	99.8525	97.8303	202.317
7.0425	99.8612	97.83	202.309
7.045	99.8698	97.8297	202.301
7.0475	99.8784	97.8293	202.292
7.05	99.887	97.8291	202.284
7.0525	99.8955	97.8288	202.276
7.055	99.904	97.8285	202.267
7.0575	99.9125	97.8283	202.259
7.06	99.921	97.8281	202.251
7.0625	99.9294	97.8279	202.243
7.065	99.9378	97.8278	202.234
7.0675	99.9461	97.8276	202.226
7.07	99.9545	97.8275	202.218
7.0725	99.9628	97.8274	202.21
7.075	99.971	97.8273	202.202
7.0775	99.9793	97.8273	202.193
7.08	99.9875	97.8272	202.185
7.0825	99.9957	97.8272	202.177
7.085	100.004	97.8272	202.169
7.0875	100.012	97.8272	202.161
7.09	100.02	97.8273	202.153
7.0925	100.028	97.8273	202.145
7.095	100.036	97.8274	202.136
7.0975	100.044	97.8275	202.128
7.1	100.052	97.8276	202.12
7.1025	100.06	97.8278	202.112
7.105	100.068	97.8279	202.104
7.1075	100.076	97.8281	202.096
7.11	100.084	97.8283	202.088
7.1125	100.091	97.8285	202.08
7.115	100.099	97.8287	202.072
7.1175	100.107	97.829	202.064
7.12	100.115	97.8293	202.056
7.1225	100.122	97.8295	202.048
7.125	100.13	97.8299	202.04
7.1275	100.138	97.8302	202.032
7.13	100.145	97.8305	202.024
7.1325	100.153	97.8309	202.016
7.135	100.161	97.8313	202.008
7.1375	100.168	97.8317	202
7.14	100.176	97.8321	201.992
7.1425	100.183	97.8325	201.984
7.145	100.19	97.833	201.977
7.1475	100.198	97.8335	201.969
7.15	100.205	97.834	201.961
7.1525	100.213	97.8345	201.953
7.155	100.22	97.835	201.945
7.1575	100.227	97.8355	201.937
7.16	100.234	97.8361	201.929
7.1625	100.242	97.8367	201.922
7.165	100.249	97.8373	201.914
7.1675	100.256	97.8379	201.906
7.17	100.263	97.8385	201.898
7.1725	100.27	97.8392	201.89
7.175	100.277	97.8399	201.883
7.1775	100.284	97.8406	201.875
7.18	100.292	97.8413	201.867
7.1825	100.299	97.842	201.859
7.185	100.306	97.8427	201.852
7.1875	100.312	97.8435	201.844
7.19	100.319	97.8442	201.836
7.1925	100.326	97.845	201.829
7.195	100.333	97.8458	201.821
7.1975	100.34	97.8467	201.813
7.2	100.347	97.8475	201.806
7.2025	100.354	97.8484	201.798
7.205	100.36	97.8492	201.79
7.2075	100.367	97.8501	201.783
7.21	100.374	97.851	201.775
7.2125	100.38	97.852	201.768
7.215	100.387	97.8529	201.76
7.2175	100.394	97.8538	201.753
7.22	100.4	97.8548	201.745
7.2225	100.407	97.8558	201.737
7.225	100.413	97.8568	201.73
7.2275	100.42	97.8578	201.722
7.23	100.426	97.8589	201.715
7.2325	100.433	97.8599	201.707
7.235	100.439	97.861	201.7
7.2375	100.445	97.8621	201.692
7.24	100.452	97.8632	201.685
7.2425	100.458	97.8643	201.678
7.245	100.464	97.8654	201.67
7.2475	100.471	97.8665	201.663
7.25	100.477	97.8677	201.655
7.2525	100.483	97.8689	201.648
7.255	100.489	97.8701	201.641
7.2575	100.496	97.8713	201.633
7.26	100.502	97.8725	201.626
7.2625	100.508	97.8737	201.618
7.265	100.514	97.875	201.611
7.2675	100.52	97.8762	201.604
7.27	100.526	97.8775	201.597
7.2725	100.532	97.8788	201.589
7.275	100.538	97.8801	201.582
7.2775	100.544	97.8815	201.575
7.28	100.55	97.8828	201.567
7.2825	100.556	97.8841	201.56
7.285	100.562	97.8855	201.553
7.2875	100.567	97.8869	201.546
7.29	100.573	97.8883	201.539
7.2925	100.579	97.8897	201.531
7.295	100.585	97.8911	201.524
7.2975	100.59	97.8926	201.517
7.3	100.596	97.894	201.51
7.3025	100.602	97.8955	201.503
7.305	100.608	97.897	201.496
7.3075	100.613	97.8984	201.488
7.31	100.619	97.9	201.481
7.3125	100.624	97.9015	201.474
7.315	100.63	97.903	201.467
7.3175	100.635	97.9046	201.46
7.32	100.641	97.9061	201.453
7.3225	100.646	97.9077	201.446
7.325	100.652	97.9093	201.439
7.3275	100.657	97.9109	201.432
7.33	100.663	97.9125	201.425
7.3325	100.668	97.9141	201.418
7.335	100.673	97.9158	201.411
7.3375	100.679	97.9174	201.404
7.34	100.684	97.9191	201.397
7.3425	100.689	97.9208	201.39
7.345	100.694	97.9225	201.383
7.3475	100.7	97.9242	201.376
7.35	100.705	97.9259	201.369
7.3525	100.71	97.9276	201.362
7.355	100.715	97.9294	201.356
7.3575	100.72	97.9311	201.349
7.36	100.725	97.9329	201.342
7.3625	100.73	97.9347	201.335
7.365	100.735	97.9365	201.328
7.3675	100.74	97.9383	201.321
7.37	100.745	97.9401	201.315
7.3725	100.75	97.9419	201.308
7.375	100.755	97.9438	201.301
7.3775	100.76	97.9456	201.294
7.38	100.765	97.9475	201.287
7.3825	100.77	97.9494	201.281
7.385	100.775	97.9513	201.274
7.3875	100.78	97.9532	201.267
7.39	100.784	97.9551	201.261
7.3925	100.789	97.957	201.254
7.395	100.794	97.959	201.247
7.3975	100.798	97.9609	201.241
7.4	100.803	97.9629	201.234
7.4025	100.808	97.9648	201.227
7.405	100.812	97.9668	201.221
7.4075	100.817	97.9688	201.214
7.41	100.822	97.9708	201.208
7.4125	100.826	97.9728	201.201
7.415	100.831	97.9749	201.194
7.4175	100.835	97.9769	201.188
7.42	100.84	97.979	201.181
7.4225	100.844	97.981	201.175
7.425	100.849	97.9831	201.168
7.4275	100.853	97.9852	201.162
7.43	100.857	97.9873	201.155
7.4325	100.862	97.9894	201.149
7.435	100.866	97.9915	201.142
7.4375	100.87	97.9936	201.136
7.44	100.875	97.9958	201.13
7.4425	100.879	97.9979	201.123
7.445	100.883	98.0001	201.117
7.4475	100.887	98.0022	201.11
7.45	100.892	98.0044	201.104
7.4525	100.896	98.0066	201.098
7.455	100.9	98.0088	201.091
7.4575	100.904	98.011	201.085
7.46	100.908	98.0132	201.079
7.4625	100.912	98.0155	201.072
7.465	100.916	98.0177	201.066
7.4675	100.92	98.02	201.06
7.47	100.924	98.0222	201.053
7.4725	100.928	98.0245	201.047
7.475	100.932	98.0268	201.041
7.4775	100.936	98.0291	201.035
7.48	100.94	98.0314	201.028
7.4825	100.944	98.0337	201.022
7.485	100.948	98.036	201.016
7.4875	100.952	98.0383	201.01
7.49	100.956	98.0407	201.004
7.4925	100.959	98.043	200.998
7.495	100.963	98.0454	200.991
7.4975	100.967	98.0477	200.985
7.5	100.971	98.0501	200.979
7.5025	100.974	98.0525	200.973
7.505	100.978	98.0549	200.967
7.5075	100.982	98.0573	200.961
7.51	100.985	98.0597	200.955
7.5125	100.989	98.0621	200.949
7.515	100.993	98.0645	200.943
7.5175	100.996	98.067	200.937
7.52	101	98.0694	200.931
7.5225	101.003	98.0719	200.925
7.525	101.007	98.0743	200.919
7.5275	101.01	98.0768	200.913
7.53	101.014	98.0793	200.907
7.5325	101.017	98.0818	200.901
7.535	101.021	98.0843	200.895
7.5375	101.024	98.0868	200.889
7.54	101.027	98.0893	200.883
7.5425	101.031	98.0918	200.878
7.545	101.034	98.0944	200.872
7.5475	101.037	98.0969	200.866
7.55	101.041	98.0994	200.86
7.5525	101.044	98.102	200.854
7.555	101.047	98.1046	200.848
7.5575	101.05	98.1071	200.843
7.56	101.053	98.1097	200.837
7.5625	101.057	98.1123	200.831
7.565	101.06	98.1149	200.825
7.5675	101.063	98.1175	200.82
7.57	101.066	98.1201	200.814
7.5725	101.069	98.1227	200.808
7.575	101.072	98.1254	200.802
7.5775	101.075	98.128	200.797
7.58	101.078	98.1306	200.791
7.5825	101.081	98.1333	200.785
7.585	101.084	98.1359	200.78
7.5875	101.087	98.1386	200.774
7.59	101.09	98.1413	200.769
7.5925	101.093	98.144	200.763
7.595	101.096	98.1466	200.757
7.5975	101.099	98.1493	200.752
7.6	101.102	98.152	200.746
7.6025	101.105	98.1547	200.741
7.605	101.107	98.1575	200.735
7.6075	101.11	98.1602	200.73
7.61	101.113	98.1629	200.724
7.6125	101.116	98.1656	200.719
7.615	101.118	98.1684	200.713
7.6175	101.121	98.1711	200.708
7.62	101.124	98.1739	200.702
7.6225	101.127	98.1766	200.697
7.625	101.129	98.1794	200.691
7.6275	101.132	98.1822	200.686
7.63	101.134	98.185	200.681
7.6325	101.137	98.1878	200.675
7.635	101.14	98.1906	200.67
7.6375	101.142	98.1934	200.664
7.64	101.145	98.1962	200.659
7.6425	101.147	98.199	200.654
7.645	101.15	98.2018	200.648
7.6475	101.152	98.2046	200.643
7.65	101.155	98.2075	200.638
7.6525	101.157	98.2103	200.633
7.655	101.16	98.2131	200.627
7.6575	101.162	98.216	200.622
7.66	101.164	98.2188	200.617
7.6625	101.167	98.2217	200.612
7.665	101.169	98.2246	200.606
7.6675	101.171	98.2274	200.601
7.67	101.174	98.2303	200.596
7.6725	101.176	98.2332	200.591
7.675	101.178	98.2361	200.586
7.6775	101.18	98.239	200.581
7.68	101.183	98.2419	200.576
7.6825	101.185	98.2448	200.57
7.685	101.187	98.2477	200.565
7.6875	101.189	98.2506	200.56
7.69	101.191	98.2536	200.555
7.6925	101.193	98.2565	200.55
7.695	101.196	98.2594	200.545
7.6975	101.198	98.2624	200.54
7.7	101.2	98.2653	200.535
7.7025	101.202	98.2683	200.53
7.705	101.204	98.2712	200.525
7.7075	101.206	98.2742	200.52
7.71	101.208	98.2771	200.515
7.7125	101.21	98.2801	200.51
7.715	101.212	98.2831	200.505
7.7175	101.214	98.2861	200.5
7.72	101.216	98.289	200.495
7.7225	101.217	98.292	200.491
7.725	101.219	98.295	200.486
7.7275	101.221	98.298	200.481
7.73	101.223	98.301	200.476
7.7325	101.225	98.304	200.471
7.735	101.227	98.307	200.466
7.7375	101.228	98.3101	200.461
7.74	101.23	98.3131	200.457
7.7425	101.232	98.3161	200.452
7.745	101.234	98.3191	200.447
7.7475	101.235	98.3222	200.442
7.75	101.237	98.3252	200.438
7.7525	101.239	98.3283	200.433
7.755	101.24	98.3313	200.428
7.7575	101.242	98.3344	200.424
7.76	101.244	98.3374	200.419
7.7625	101.245	98.3405	200.414
7.765	101.247	98.3435	200.409
7.7675	101.249	98.3466	200.405
7.77	101.25	98.3497	200.4
7.7725	101.252	98.3528	200.396
7.775	101.253	98.3558	200.391
7.7775	101.255	98.3589	200.386
7.78	101.256	98.362	200.382
7.7825	101.258	98.3651	200.377
7.785	101.259	98.3682	200.373
7.7875	101.261	98.3713	200.368
7.79	101.262	98.3744	200.364
7.7925	101.263	98.3775	200.359
7.795	101.265	98.3806	200.355
7.7975	101.266	98.3837	200.35
7.8	101.268	98.3868	200.346
7.8025	101.269	98.39	200.341
7.805	101.27	98.3931	200.337
7.8075	101.271	98.3962	200.332
7.81	101.273	98.3993	200.328
7.8125	101.274	98.4025	200.324
7.815	101.275	98.4056	200.319
7.8175	101.277	98.4087	200.315
7.82	101.278	98.4119	200.31
7.8225	101.279	98.415	200.306
7.825	101.28	98.4182	200.302
7.8275	101.281	98.4213	200.297
7.83	101.282	98.4245	200.293
7.8325	101.284	98.4276	200.289
7.835	101.285	98.4308	200.284
7.8375	101.286	98.434	200.28
7.84	101.287	98.4371	200.276
7.8425	101.288	98.4403	200.272
7.845	101.289	98.4435	200.267
7.8475	101.29	98.4466	200.263
7.85	101.291	98.4498	200.259
7.8525	101.292	98.453	200.255
7.855	101.293	98.4562	200.251
7.8575	101.294	98.4594	200.246
7.86	101.295	98.4625	200.242
7.8625	101.296	98.4657	200.238
7.865	101.297	98.4689	200.234
7.8675	101.298	98.4721	200.23
7.87	101.299	98.4753	200.226
7.8725	101.3	98.4785	200.222
7.875	101.301	98.4817	200.218
7.8775	101.301	98.4849	200.214
7.88	101.302	98.4881	200.21
7.8825	101.303	98.4913	200.206
7.885	101.304	98.4945	200.202
7.8875	101.305	98.4978	200.198
7.89	101.306	98.501	200.194
7.8925	101.306	98.5042	200.19
7.895	101.307	98.5074	200.186
7.8975	101.308	98.5106	200.182
7.9	101.308	98.5138	200.178
7.9025	101.309	98.5171	200.174
7.905	101.31	98.5203	200.17
7.9075	101.311	98.5235	200.166
7.91	101.311	98.5267	200.162
7.9125	101.312	98.53	200.158
7.915	101.313	98.5332	200.154
7.9175	101.313	98.5364	200.15
7.92	101.314	98.5397	200.147
7.9225	101.314	98.5429	200.143
7.925	101.315	98.5462	200.139
7.9275	101.315	98.5494	200.135
7.93	101.316	98.5526	200.131
7.9325	101.317	98.5559	200.128
7.935	101.317	98.5591	200.124
7.9375	101.318	98.5624	200.12
7.94	101.318	98.5656	200.116
7.9425	101.319	98.5689	200.113
7.945	101.319	98.5721	200.109
7.9475	101.319	98.5754	200.105
7.95	101.32	98.5786	200.101
7.9525	101.32	98.5819	200.098
7.955	101.321	98.5851	200.094
7.9575	101.321	98.5884	200.091
7.96	101.321	98.5916	200.087
7.9625	101.322	98.5949	200.083
7.965	101.322	98.5982	200.08
7.9675	101.323	98.6014	200.076
7.97	101.323	98.6047	200.072
7.9725	101.323	98.6079	200.069
7.975	101.323	98.6112	200.065
7.9775	101.324	98.6145	200.062
7.98	101.324	98.6177	200.058
7.9825	101.324	98.621	200.055
7.985	101.325	98.6243	200.051
7.9875	101.325	98.6275	200.048
7.99	101.325	98.6308	200.044
7.9925	101.325	98.6341	200.041
7.995	101.325	98.6373	200.037
7.9975	101.326	98.6406	200.034
8	101.326	98.6439	200.03
8.0025	101.326	98.6471	200.027
8.005	101.326	98.6504	200.024
8.0075	101.326	98.6537	200.02
8.01	101.326	98.6569	200.017
8.0125	101.326	98.6602	200.013
8.015	101.326	98.6635	200.01
8.0175	101.327	98.6668	200.007
8.02	101.327	98.67	200.003
8.0225	101.327	98.6733	200
8.025	101.327	98.6766	199.997
8.0275	101.327	98.6799	199.993
8.03	101.327	98.6831	199.99
8.0325	101.327	98.6864	199.987
8.035	101.327	98.6897	199.984
8.0375	101.327	98.6929	199.98
8.04	101.327	98.6962	199.977
8.0425	101.327	98.6995	199.974
8.045	101.327	98.7028	199.971
8.0475	101.326	98.706	199.968
8.05	101.326	98.7093	199.964
8.0525	101.326	98.7126	199.961
8.055	101.326	98.7159	199.958
8.0575	101.326	98.7191	199.955
8.06	101.326	98.7224	199.952
8.0625	101.326	98.7257	199.949
8.065	101.326	98.7289	199.945
8.0675	101.325	98.7322	199.942
8.07	101.325	98.7355	199.939
8.0725	101.325	98.7388	199.936
8.075	101.325	98.742	199.933
8.0775	101.325	98.7453	199.93
8.08	101.324	98.7486	199.927
8.0825	101.324	98.7518	199.924
8.085	101.324	98.7551	199.921
8.0875	101.324	98.7584	199.918
8.09	101.323	98.7616	199.915
8.0925	101.323	98.7649	199.912
8.095	101.323	98.7682	199.909
8.0975	101.323	98.7714	199.906
8.1	101.322	98.7747	199.903
8.1025	101.322	98.778	199.9
8.105	101.322	98.7812	199.897
8.1075	101.321	98.7845	199.894
8.11	101.321	98.7878	199.891
8.1125	101.32	98.791	199.889
8.115	101.32	98.7943	199.886
8.1175	101.32	98.7975	199.883
8.12	101.319	98.8008	199.88
8.1225	101.319	98.8041	199.877
8.125	101.318	98.8073	199.874
8.1275	101.318	98.8106	199.871
8.13	101.318	98.8138	199.869
8.1325	101.317	98.8171	199.866
8.135	101.317	98.8203	199.863
8.1375	101.316	98.8236	199.86
8.14	101.316	98.8268	199.858
8.1425	101.315	98.8301	199.855
8.145	101.315	98.8333	199.852
8.1475	101.314	98.8366	199.849
8.15	101.314	98.8398	199.847
8.1525	101.313	98.8431	199.844
8.155	101.312	98.8463	199.841
8.1575	101.312	98.8496	199.839
8.16	101.311	98.8528	199.836
8.1625	101.311	98.8561	199.833
8.165	101.31	98.8593	199.831
8.1675	101.31	98.8625	199.828
8.17	101.309	98.8658	199.825
8.1725	101.308	98.869	199.823
8.175	101.308	98.8722	199.82
8.1775	101.307	98.8755	199.817
8.18	101.306	98.8787	199.815
8.1825	101.306	98.8819	199.812
8.185	101.305	98.8851	199.81
8.1875	101.304	98.8884	199.807
8.19	101.304	98.8916	199.805
8.1925	101.303	98.8948	199.802
8.195	101.302	98.898	199.8
8.1975	101.302	98.9013	199.797
8.2	101.301	98.9045	199.795
8.2025	101.3	98.9077	199.792
8.205	101.299	98.9109	199.79
8.2075	101.299	98.9141	199.787
8.21	101.298	98.9173	199.785
8.2125	101.297	98.9205	199.782
8.215	101.296	98.9237	199.78
8.2175	101.295	98.9269	199.778
8.22	101.295	98.9302	199.775
8.2225	101.294	98.9334	199.773
8.225	101.293	98.9366	199.77
8.2275	101.292	98.9397	199.768
8.23	101.291	98.9429	199.766
8.2325	101.29	98.9461	199.763
8.235	101.29	98.9493	199.761
8.2375	101.289	98.9525	199.759
8.24	101.288	98.9557	199.756
8.2425	101.287	98.9589	199.754
8.245	101.286	98.9621	199.752
8.2475	101.285	98.9653	199.75
8.25	101.284	98.9684	199.747
8.2525	101.283	98.9716	199.745
8.255	101.282	98.9748	199.743
8.2575	101.282	98.978	199.741
8.26	101.281	98.9811	199.738
8.2625	101.28	98.9843	199.736
8.265	101.279	98.9875	199.734
8.2675	101.278	98.9906	199.732
8.27	101.277	98.9938	199.729
8.2725	101.276	98.9969	199.727
8.275	101.275	99.0001	199.725
8.2775	101.274	99.0033	199.723
8.28	101.273	99.0064	199.721
8.2825	101.272	99.0096	199.719
8.285	101.271	99.0127	199.717
8.2875	101.27	99.0158	199.715
8.29	101.269	99.019	199.712
8.2925	101.268	99.0221	199.71
8.295	101.266	99.0253	199.708
8.2975	101.265	99.0284	199.706
8.3	101.264	99.0315	199.704
8.3025	101.263	99.0347	199.702
8.305	101.262	99.0378	199.7
8.3075	101.261	99.0409	199.698
8.31	101.26	99.044	199.696
8.3125	101.259	99.0471	199.694
8.315	101.258	99.0503	199.692
8.3175	101.257	99.0534	199.69
8.32	101.255	99.0565	199.688
8.3225	101.254	99.0596	199.686
8.325	101.253	99.0627	199.684
8.3275	101.252	99.0658	199.682
8.33	101.251	99.0689	199.68
8.3325	101.25	99.072	199.678
8.335	101.248	99.0751	199.676
8.3375	101.247	99.0782	199.675
8.34	101.246	99.0813	199.673
8.3425	101.245	99.0844	199.671
8.345	101.244	99.0874	199.669
8.3475	101.242	99.0905	199.667
8.35	101.241	99.0936	199.665
8.3525	101.24	99.0967	199.663
8.355	101.239	99.0997	199.661
8.3575	101.238	99.1028	199.66
8.36	101.236	99.1059	199.658
8.3625	101.235	99.1089	199.656
8.365	101.234	99.112	199.654
8.3675	101.232	99.115	199.652
8.37	101.231	99.1181	199.651
8.3725	101.23	99.1211	199.649
8.375	101.229	99.1242	199.647
8.3775	101.227	99.1272	199.645
8.38	101.226	99.1303	199.644
8.3825	101.225	99.1333	199.642
8.385	101.223	99.1363	199.64
8.3875	101.222	99.1394	199.639
8.39	101.221	99.1424	199.637
8.3925	101.219	99.1454	199.635
8.395	101.218	99.1484	199.633
8.3975	101.217	99.1515	199.632
8.4	101.215	99.1545	199.63
8.4025	101.214	99.1575	199.629
8.405	101.213	99.1605	199.627
8.4075	101.211	99.1635	199.625
8.41	101.21	99.1665	199.624
8.4125	101.208	99.1695	199.622
8.415	101.207	99.1725	199.62
8.4175	101.206	99.1755	199.619
8.42	101.204	99.1785	199.617
8.4225	101.203	99.1815	199.616
8.425	101.201	99.1844	199.614
8.4275	101.2	99.1874	199.613
8.43	101.199	99.1904	199.611
8.4325	101.197	99.1934	199.61
8.435	101.196	99.1963	199.608
8.4375	101.194	99.1993	199.606
8.44	101.193	99.2022	199.605
8.4425	101.191	99.2052	199.603
8.445	101.19	99.2082	199.602
8.4475	101.188	99.2111	199.601
8.45	101.187	99.2141	199.599
8.4525	101.185	99.217	199.598
8.455	101.184	99.2199	199.596
8.4575	101.182	99.2229	199.595
8.46	101.181	99.2258	199.593
8.4625	101.179	99.2287	199.592
8.465	101.178	99.2317	199.59
8.4675	101.176	99.2346	199.589
8.47	101.175	99.2375	199.588
8.4725	101.173	99.2404	199.586
8.475	101.172	99.2433	199.585
8.4775	101.17	99.2462	199.583
8.48	101.169	99.2491	199.582
8.4825	101.167	99.252	199.581
8.485	101.166	99.2549	199.579
8.4875	101.164	99.2578	199.578
8.49	101.163	99.2607	199.577
8.4925	101.161	99.2636	199.575
8.495	101.159	99.2665	199.574
8.4975	101.158	99.2693	199.573
8.5	101.156	99.2722	199.572
8.5025	101.155	99.2751	199.57
8.505	101.153	99.2779	199.569
8.5075	101.151	99.2808	199.568
8.51	101.15	99.2836	199.567
8.5125	101.148	99.2865	199.565
8.515	101.147	99.2893	199.564
8.5175	101.145	99.2922	199.563
8.52	101.143	99.295	199.562
8.5225	101.142	99.2979	199.56
8.525	101.14	99.3007	199.559
8.5275	101.138	99.3035	199.558
8.53	101.137	99.3064	199.557
8.5325	101.135	99.3092	199.556
8.535	101.134	99.312	199.554
8.5375	101.132	99.3148	199.553
8.54	101.13	99.3176	199.552
8.5425	101.129	99.3204	199.551
8.545	101.127	99.3232	199.55
8.5475	101.125	99.326	199.549
8.55	101.124	99.3288	199.548
8.5525	101.122	99.3316	199.547
8.555	101.12	99.3344	199.545
8.5575	101.119	99.3372	199.544
8.56	101.117	99.3399	199.543
8.5625	101.115	99.3427	199.542
8.565	101.113	99.3455	199.541
8.5675	101.112	99.3482	199.54
8.57	101.11	99.351	199.539
8.5725	101.108	99.3537	199.538
8.575	101.107	99.3565	199.537
8.5775	101.105	99.3592	199.536
8.58	101.103	99.362	199.535
8.5825	101.101	99.3647	199.534
8.585	101.1	99.3675	199.533
8.5875	101.098	99.3702	199.532
8.59	101.096	99.3729	199.531
8.5925	101.094	99.3756	199.53
8.595	101.093	99.3784	199.529
8.5975	101.091	99.3811	199.528
8.6	101.089	99.3838	199.527
8.6025	101.087	99.3865	199.526
8.605	101.086	99.3892	199.525
8.6075	101.084	99.3919	199.524
8.61	101.082	99.3946	199.523
8.6125	101.08	99.3972	199.522
8.615	101.079	99.3999	199.521
8.6175	101.077	99.4026	199.521
8.62	101.075	99.4053	199.52
8.6225	101.073	99.408	199.519
8.625	101.071	99.4106	199.518
8.6275	101.07	99.4133	199.517
8.63	101.068	99.4159	199.516
8.6325	101.066	99.4186	199.515
8.635	101.064	99.4212	199.514
8.6375	101.062	99.4239	199.514
8.64	101.061	99.4265	199.513
8.6425	101.059	99.4292	199.512
8.645	101.057	99.4318	199.511
8.6475	101.055	99.4344	199.51
8.65	101.053	99.437	199.51
8.6525	101.052	99.4396	199.509
8.655	101.05	99.4423	199.508
8.6575	101.048	99.4449	199.507
8.66	101.046	99.4475	199.506
8.6625	101.044	99.4501	199.506
8.665	101.042	99.4527	199.505
8.6675	101.041	99.4552	199.504
8.67	101.039	99.4578	199.503
8.6725	101.037	99.4604	199.503
8.675	101.035	99.463	199.502
8.6775	101.033	99.4656	199.501
8.68	101.031	99.4681	199.501
8.6825	101.029	99.4707	199.5
8.685	101.028	99.4732	199.499
8.6875	101.026	99.4758	199.499
8.69	101.024	99.4783	199.498
8.6925	101.022	99.4809	199.497
8.695	101.02	99.4834	199.496
8.6975	101.018	99.486	199.496
8.7	101.016	99.4885	199.495
8.7025	101.014	99.491	199.495
8.705	101.013	99.4935	199.494
8.7075	101.011	99.4961	199.493
8.71	101.009	99.4986	199.493
8.7125	101.007	99.5011	199.492
8.715	101.005	99.5036	199.491
8.7175	101.003	99.5061	199.491
8.72	101.001	99.5086	199.49
8.7225	100.999	99.5111	199.49
8.725	100.997	99.5135	199.489
8.7275	100.995	99.516	199.488
8.73	100.994	99.5185	199.488
8.7325	100.992	99.521	199.487
8.735	100.99	99.5234	199.487
8.7375	100.988	99.5259	199.486
8.74	100.986	99.5283	199.486
8.7425	100.984	99.5308	199.485
8.745	100.982	99.5332	199.485
8.7475	100.98	99.5357	199.484
8.75	100.978	99.5381	199.484
8.7525	100.976	99.5406	199.483
8.755	100.974	99.543	199.483
8.7575	100.972	99.5454	199.482
8.76	100.971	99.5478	199.482
8.7625	100.969	99.5502	199.481
8.765	100.967	99.5526	199.481
8.7675	100.965	99.555	199.48
8.77	100.963	99.5574	199.48
8.7725	100.961	99.5598	199.479
8.775	100.959	99.5622	199.479
8.7775	100.957	99.5646	199.478
8.78	100.955	99.567	199.478
8.7825	100.953	99.5694	199.478
8.785	100.951	99.5717	199.477
8.7875	100.949	99.5741	199.477
8.79	100.947	99.5765	199.476
8.7925	100.945	99.5788	199.476
8.795	100.943	99.5812	199.476
8.7975	100.941	99.5835	199.475
8.8	100.939	99.5859	199.475
8.8025	100.937	99.5882	199.474
8.805	100.935	99.5905	199.474
8.8075	100.933	99.5928	199.474
8.81	100.932	99.5952	199.473
8.8125	100.93	99.5975	199.473
8.815	100.928	99.5998	199.473
8.8175	100.926	99.6021	199.472
8.82	100.924	99.6044	199.472
8.8225	100.922	99.6067	199.472
8.825	100.92	99.609	199.471
8.8275	100.918	99.6113	199.471
8.83	100.916	99.6136	199.471
8.8325	100.914	99.6158	199.47
8.835	100.912	99.6181	199.47
8.8375	100.91	99.6204	199.47
8.84	100.908	99.6227	199.469
8.8425	100.906	99.6249	199.469
8.845	100.904	99.6272	199.469
8.8475	100.902	99.6294	199.469
8.85	100.9	99.6317	199.468
8.8525	100.898	99.6339	199.468
8.855	100.896	99.6361	199.468
8.8575	100.894	99.6384	199.468
8.86	100.892	99.6406	199.467
8.8625	100.89	99.6428	199.467
8.865	100.888	99.645	199.467
8.8675	100.886	99.6472	199.467
8.87	100.884	99.6494	199.467
8.8725	100.882	99.6516	199.466
8.875	100.88	99.6538	199.466
8.8775	100.878	99.656	199.466
8.88	100.876	99.6582	199.466
8.8825	100.874	99.6604	199.466
8.885	100.872	99.6626	199.465
8.8875	100.87	99.6647	199.465
8.89	100.868	99.6669	199.465
8.8925	100.866	99.6691	199.465
8.895	100.864	99.6712	199.465
8.8975	100.862	99.6734	199.465
8.9	100.86	99.6755	199.464
8.9025	100.858	99.6776	199.464
8.905	100.856	99.6798	199.464
8.9075	100.854	99.6819	199.464
8.91	100.852	99.684	199.464
8.9125	100.85	99.6862	199.464
8.915	100.848	99.6883	199.464
8.9175	100.846	99.6904	199.464
8.92	100.844	99.6925	199.463
8.9225	100.842	99.6946	199.463
8.925	100.84	99.6967	199.463
8.9275	100.838	99.6988	199.463
8.93	100.836	99.7009	199.463
8.9325	100.834	99.7029	199.463
8.935	100.832	99.705	199.463
8.9375	100.83	99.7071	199.463
8.94	100.828	99.7092	199.463
8.9425	100.826	99.7112	199.463
8.945	100.824	99.7133	199.463
8.9475	100.822	99.7153	199.463
8.95	100.82	99.7174	199.463
8.9525	100.818	99.7194	199.463
8.955	100.816	99.7215	199.463
8.9575	100.814	99.7235	199.463
8.96	100.812	99.7255	199.463
8.9625	100.81	99.7275	199.463
8.965	100.808	99.7296	199.463
8.9675	100.806	99.7316	199.463
8.97	100.804	99.7336	199.463
8.9725	100.802	99.7356	199.463
8.975	100.8	99.7376	199.463
8.9775	100.798	99.7396	199.463
8.98	100.796	99.7415	199.463
8.9825	100.794	99.7435	199.463
8.985	100.792	99.7455	199.463
8.9875	100.79	99.7475	199.463
8.99	100.788	99.7494	199.463
8.9925	100.786	99.7514	199.463
8.995	100.784	99.7534	199.463
8.9975	100.782	99.7553	199.463
9	100.78	99.7573	199.463
9.0025	100.778	99.7592	199.463
9.005	100.776	99.7611	199.463
9.0075	100.774	99.7631	199.463
9.01	100.772	99.765	199.463
9.0125	100.77	99.7669	199.463
9.015	100.768	99.7688	199.463
9.0175	100.766	99.7708	199.464
9.02	100.764	99.7727	199.464
9.0225	100.762	99.7746	199.464
9.025	100.76	99.7765	199.464
9.0275	100.758	99.7784	199.464
9.03	100.756	99.7802	199.464
9.0325	100.754	99.7821	199.464
9.035	100.752	99.784	199.464
9.0375	100.75	99.7859	199.465
9.04	100.748	99.7877	199.465
9.0425	100.746	99.7896	199.465
9.045	100.744	99.7915	199.465
9.0475	100.742	99.7933	199.465
9.05	100.74	99.7952	199.465
9.0525	100.738	99.797	199.465
9.055	100.736	99.7988	199.466
9.0575	100.734	99.8007	199.466
9.06	100.732	99.8025	199.466
9.0625	100.73	99.8043	199.466
9.065	100.728	99.8061	199.466
9.0675	100.726	99.808	199.466
9.07	100.724	99.8098	199.467
9.0725	100.722	99.8116	199.467
9.075	100.72	99.8134	199.467
9.0775	100.718	99.8152	199.467
9.08	100.716	99.8169	199.467
9.0825	100.714	99.8187	199.468
9.085	100.712	99.8205	199.468
9.0875	100.71	99.8223	199.468
9.09	100.708	99.8241	199.468
9.0925	100.706	99.8258	199.469
9.095	100.704	99.8276	199.469
9.0975	100.702	99.8293	199.469
9.1	100.7	99.8311	199.469
9.1025	100.698	99.8328	199.469
9.105	100.696	99.8346	199.47
9.1075	100.694	99.8363	199.47
9.11	100.692	99.838	199.47
9.1125	100.69	99.8397	199.47
9.115	100.688	99.8415	199.471
9.1175	100.686	99.8432	199.471
9.12	100.684	99.8449	199.471
9.1225	100.682	99.8466	199.472
9.125	100.68	99.8483	199.472
9.1275	100.678	99.85	199.472
9.13	100.676	99.8517	199.472
9.1325	100.674	99.8534	199.473
9.135	100.672	99.855	199.473
9.1375	100.67	99.8567	199.473
9.14	100.668	99.8584	199.474
9.1425	100.666	99.8601	199.474
9.145	100.664	99.8617	199.474
9.1475	100.662	99.8634	199.475
9.15	100.66	99.865	199.475
9.1525	100.658	99.8667	199.475
9.155	100.656	99.8683	199.475
9.1575	100.654	99.8699	199.476
9.16	100.652	99.8716	199.476
9.1625	100.65	99.8732	199.476
9.165	100.648	99.8748	199.477
9.1675	100.646	99.8764	199.477
9.17	100.644	99.878	199.477
9.1725	100.642	99.8797	199.478
9.175	100.641	99.8813	199.478
9.1775	100.639	99.8829	199.479
9.18	100.637	99.8844	199.479
9.1825	100.635	99.886	199.479
9.185	100.633	99.8876	199.48
9.1875	100.631	99.8892	199.48
9.19	100.629	99.8908	199.48
9.1925	100.627	99.8923	199.481
9.195	100.625	99.8939	199.481
9.1975	100.623	99.8955	199.482
9.2	100.621	99.897	199.482
9.2025	100.619	99.8986	199.482
9.205	100.617	99.9001	199.483
9.2075	100.615	99.9016	199.483
9.21	100.613	99.9032	199.484
9.2125	100.611	99.9047	199.484
9.215	100.609	99.9062	199.484
9.2175	100.608	99.9077	199.485
9.22	100.606	99.9093	199.485
9.2225	100.604	99.9108	199.486
9.225	100.602	99.9123	199.486
9.2275	100.6	99.9138	199.486
9.23	100.598	99.9153	199.487
9.2325	100.596	99.9168	199.487
9.235	100.594	99.9183	199.488
9.2375	100.592	99.9197	199.488
9.24	100.59	99.9212	199.489
9.2425	100.588	99.9227	199.489
9.245	100.586	99.9242	199.489
9.2475	100.584	99.9256	199.49
9.25	100.583	99.9271	199.49
9.2525	100.581	99.9285	199.491
9.255	100.579	99.93	199.491
9.2575	100.577	99.9314	199.492
9.26	100.575	99.9329	199.492
9.2625	100.573	99.9343	199.493
9.265	100.571	99.9357	199.493
9.2675	100.569	99.9371	199.494
9.27	100.567	99.9386	199.494
9.2725	100.565	99.94	199.495
9.275	100.564	99.9414	199.495
9.2775	100.562	99.9428	199.496
9.28	100.56	99.9442	199.496
9.2825	100.558	99.9456	199.497
9.285	100.556	99.947	199.497
9.2875	100.554	99.9484	199.498
9.29	100.552	99.9497	199.498
9.2925	100.55	99.9511	199.499
9.295	100.548	99.9525	199.499
9.2975	100.547	99.9539	199.5
9.3	100.545	99.9552	199.5
9.3025	100.543	99.9566	199.501
9.305	100.541	99.9579	199.501
9.3075	100.539	99.9593	199.502
9.31	100.537	99.9606	199.502
9.3125	100.535	99.962	199.503
9.315	100.533	99.9633	199.503
9.3175	100.532	99.9646	199.504
9.32	100.53	99.966	199.504
9.3225	100.528	99.9673	199.505
9.325	100.526	99.9686	199.505
9.3275	100.524	99.9699	199.506
9.33	100.522	99.9712	199.506
9.3325	100.52	99.9725	199.507
9.335	100.519	99.9738	199.508
9.3375	100.517	99.9751	199.508
9.34	100.515	99.9764	199.509
9.3425	100.513	99.9777	199.509
9.345	100.511	99.979	199.51
9.3475	100.509	99.9803	199.51
9.35	100.508	99.9815	199.511
9.3525	100.506	99.9828	199.511
9.355	100.504	99.9841	199.512
9.3575	100.502	99.9853	199.513
9.36	100.5	99.9866	199.513
9.3625	100.498	99.9878	199.514
9.365	100.497	99.9891	199.514
9.3675	100.495	99.9903	199.515
9.37	100.493	99.9915	199.515
9.3725	100.491	99.9928	199.516
9.375	100.489	99.994	199.517
9.3775	100.488	99.9952	199.517
9.38	100.486	99.9964	199.518
9.3825	100.484	99.9976	199.518
9.385	100.482	99.9988	199.519
9.3875	100.48	100	199.52
9.39	100.479	100.001	199.52
9.3925	100.477	100.002	199.521
9.395	100.475	100.004	199.521
9.3975	100.473	100.005	199.522
9.4	100.471	100.006	199.523
9.4025	100.47	100.007	199.523
9.405	100.468	100.008	199.524
9.4075	100.466	100.01	199.524
9.41	100.464	100.011	199.525
9.4125	100.462	100.012	199.526
9.415	100.461	100.013	199.526
9.4175	100.459	100.014	199.527
9.42	100.457	100.015	199.528
9.4225	100.455	100.016	199.528
9.425	100.454	100.018	199.529
9.4275	100.452	100.019	199.53
9.43	100.45	100.02	199.53
9.4325	100.448	100.021	199.531
9.435	100.447	100.022	199.531
9.4375	100.445	100.023	199.532
9.44	100.443	100.024	199.533
9.4425	100.441	100.025	199.533
9.445	100.44	100.026	199.534
9.4475	100.438	100.028	199.535
9.45	100.436	100.029	199.535
9.4525	100.434	100.03	199.536
9.455	100.433	100.031	199.537
9.4575	100.431	100.032	199.537
9.46	100.429	100.033	199.538
9.4625	100.427	100.034	199.539
9.465	100.426	100.035	199.539
9.4675	100.424	100.036	199.54
9.47	100.422	100.037	199.541
9.4725	100.42	100.038	199.541
9.475	100.419	100.039	199.542
9.4775	100.417	100.04	199.543
9.48	100.415	100.041	199.543
9.4825	100.414	100.042	199.544
9.485	100.412	100.044	199.545
9.4875	100.41	100.045	199.545
9.49	100.408	100.046	199.546
9.4925	100.407	100.047	199.547
9.495	100.405	100.048	199.547
9.4975	100.403	100.049	199.548
9.5	100.402	100.05	199.549
9.5025	100.4	100.051	199.549
9.505	100.398	100.052	199.55
9.5075	100.397	100.053	199.551
9.51	100.395	100.054	199.551
9.5125	100.393	100.055	199.552
9.515	100.392	100.056	199.553
9.5175	100.39	100.057	199.554
9.52	100.388	100.058	199.554
9.5225	100.387	100.058	199.555
9.525	100.385	100.059	199.556
9.5275	100.383	100.06	199.556
9.53	100.382	100.061	199.557
9.5325	100.38	100.062	199.558
9.535	100.378	100.063	199.559
9.5375	100.377	100.064	199.559
9.54	100.375	100.065	199.56
9.5425	100.373	100.066	199.561
9.545	100.372	100.067	199.561
9.5475	100.37	100.068	199.562
9.55	100.368	100.069	199.563
9.5525	100.367	100.07	199.564
9.555	100.365	100.071	199.564
9.5575	100.363	100.072	199.565
9.56	100.362	100.073	199.566
9.5625	100.36	100.073	199.566
9.565	100.359	100.074	199.567
9.5675	100.357	100.075	199.568
9.57	100.355	100.076	199.569
9.5725	100.354	100.077	199.569
9.575	100.352	100.078	199.57
9.5775	100.35	100.079	199.571
9.58	100.349	100.08	199.572
9.5825	100.347	100.081	199.572
9.585	100.346	100.081	199.573
9.5875	100.344	100.082	199.574
9.59	100.342	100.083	199.574
9.5925	100.341	100.084	199.575
9.595	100.339	100.085	199.576
9.5975	100.338	100.086	199.577
9.6	100.336	100.087	199.577
9.6025	100.334	100.087	199.578
9.605	100.333	100.088	199.579
9.6075	100.331	100.089	199.58
9.61	100.33	100.09	199.58
9.6125	100.328	100.091	199.581
9.615	100.327	100.091	199.582
9.6175	100.325	100.092	199.583
9.62	100.323	100.093	199.583
9.6225	100.322	100.094	199.584
9.625	100.32	100.095	199.585
9.6275	100.319	100.096	199.586
9.63	100.317	100.096	199.586
9.6325	100.316	100.097	199.587
9.635	100.314	100.098	199.588
9.6375	100.313	100.099	199.589
9.64	100.311	100.099	199.589
9.6425	100.31	100.1	199.59
9.645	100.308	100.101	199.591
9.6475	100.306	100.102	199.592
9.65	100.305	100.103	199.593
9.6525	100.303	100.103	199.593
9.655	100.302	100.104	199.594
9.6575	100.3	100.105	199.595
9.66	100.299	100.106	199.596
9.6625	100.297	100.106	199.596
9.665	100.296	100.107	199.597
9.6675	100.294	100.108	199.598
9.67	100.293	100.109	199.599
9.6725	100.291	100.109	199.599
9.675	100.29	100.11	199.6
9.6775	100.288	100.111	199.601
9.68	100.287	100.111	199.602
9.6825	100.285	100.112	199.603
9.685	100.284	100.113	199.603
9.6875	100.282	100.114	199.604
9.69	100.281	100.114	199.605
9.6925	100.279	100.115	199.606
9.695	100.278	100.116	199.606
9.6975	100.276	100.116	199.607
9.7	100.275	100.117	199.608
9.7025	100.273	100.118	199.609
9.705	100.272	100.118	199.61
9.7075	100.271	100.119	199.61
9.71	100.269	100.12	199.611
9.7125	100.268	100.12	199.612
9.715	100.266	100.121	199.613
9.7175	100.265	100.122	199.614
9.72	100.263	100.122	199.614
9.7225	100.262	100.123	199.615
9.725	100.26	100.124	199.616
9.7275	100.259	100.124	199.617
9.73	100.257	100.125	199.617
9.7325	100.256	100.126	199.618
9.735	100.255	100.126	199.619
9.7375	100.253	100.127	199.62
9.74	100.252	100.128	199.621
9.7425	100.25	100.128	199.621
9.745	100.249	100.129	199.622
9.7475	100.248	100.129	199.623
9.75	100.246	100.13	199.624
9.7525	100.245	100.131	199.625
9.755	100.243	100.131	199.625
9.7575	100.242	100.132	199.626
9.76	100.24	100.133	199.627
9.7625	100.239	100.133	199.628
9.765	100.238	100.134	199.629
9.7675	100.236	100.134	199.629
9.77	100.235	100.135	199.63
9.7725	100.234	100.135	199.631
9.775	100.232	100.136	199.632
9.7775	100.231	100.137	199.633
9.78	100.229	100.137	199.633
9.7825	100.228	100.138	199.634
9.785	100.227	100.138	199.635
9.7875	100.225	100.139	199.636
9.79	100.224	100.139	199.637
9.7925	100.223	100.14	199.637
9.795	100.221	100.141	199.638
9.7975	100.22	100.141	199.639
9.8	100.218	100.142	199.64
9.8025	100.217	100.142	199.641
9.805	100.216	100.143	199.641
9.8075	100.214	100.143	199.642
9.81	100.213	100.144	199.643
9.8125	100.212	100.144	199.644
9.815	100.21	100.145	199.645
9.8175	100.209	100.145	199.645
9.82	100.208	100.146	199.646
9.8225	100.206	100.146	199.647
9.825	100.205	100.147	199.648
9.8275	100.204	100.148	199.649
9.83	100.202	100.148	199.65
9.8325	100.201	100.149	199.65
9.835	100.2	100.149	199.651
9.8375	100.199	100.15	199.652
9.84	100.197	100.15	199.653
9.8425	100.196	100.151	199.654
9.845	100.195	100.151	199.654
9.8475	100.193	100.151	199.655
9.85	100.192	100.152	199.656
9.8525	100.191	100.152	199.657
9.855	100.189	100.153	199.658
9.8575	100.188	100.153	199.658
9.86	100.187	100.154	199.659
9.8625	100.186	100.154	199.66
9.865	100.184	100.155	199.661
9.8675	100.183	100.155	199.662
9.87	100.182	100.156	199.662
9.8725	100.181	100.156	199.663
9.875	100.179	100.157	199.664
9.8775	100.178	100.157	199.665
9.88	100.177	100.158	199.666
9.8825	100.176	100.158	199.667
9.885	100.174	100.158	199.667
9.8875	100.173	100.159	199.668
9.89	100.172	100.159	199.669
9.8925	100.171	100.16	199.67
9.895	100.169	100.16	199.671
9.8975	100.168	100.161	199.671
9.9	100.167	100.161	199.672
9.9025	100.166	100.161	199.673
9.905	100.164	100.162	199.674
9.9075	100.163	100.162	199.675
9.91	100.162	100.163	199.675
9.9125	100.161	100.163	199.676
9.915	100.16	100.163	199.677
9.9175	100.158	100.164	199.678
9.92	100.157	100.164	199.679
9.9225	100.156	100.165	199.68
9.925	100.155	100.165	199.68
9.9275	100.153	100.165	199.681
9.93	100.152	100.166	199.682
9.9325	100.151	100.166	199.683
9.935	100.15	100.167	199.684
9.9375	100.149	100.167	199.684
9.94	100.148	100.167	199.685
9.9425	100.146	100.168	199.686
9.945	100.145	100.168	199.687
9.9475	100.144	100.168	199.688
9.95	100.143	100.169	199.688
9.9525	100.142	100.169	199.689
9.955	100.141	100.169	199.69
9.9575	100.139	100.17	199.691
9.96	100.138	100.17	199.692
9.9625	100.137	100.17	199.692
9.965	100.136	100.171	199.693
9.9675	100.135	100.171	199.694
9.97	100.134	100.171	199.695
9.9725	100.132	100.172	199.696
9.975	100.131	100.172	199.697
9.9775	100.13	100.172	199.697
9.98	100.129	100.173	199.698
9.9825	100.128	100.173	199.699
9.985	100.127	100.173	199.7
9.9875	100.126	100.174	199.701
9.99	100.125	100.174	199.701
9.9925	100.123	100.174	199.702
9.995	100.122	100.175	199.703
9.9975	100.121	100.175	199.704
10	100.12	100.175	199.705
10.0025	100.119	100.176	199.705
10.005	100.118	100.176	199.706
10.0075	100.117	100.176	199.707
10.01	100.116	100.176	199.708
10.0125	100.115	100.177	199.709
10.015	100.113	100.177	199.709
10.0175	100.112	100.177	199.71
10.02	100.111	100.178	199.711
10.0225	100.11	100.178	199.712
10.025	100.109	100.178	199.713
10.0275	100.108	100.178	199.713
10.03	100.107	100.179	199.714
10.0325	100.106	100.179	199.715
10.035	100.105	100.179	199.716
10.0375	100.104	100.179	199.717
10.04	100.103	100.18	199.718
10.0425	100.102	100.18	199.718
10.045	100.101	100.18	199.719
10.0475	100.1	100.181	199.72
10.05	100.099	100.181	199.721
10.0525	100.097	100.181	199.722
10.055	100.096	100.181	199.722
10.0575	100.095	100.181	199.723
10.06	100.094	100.182	199.724
10.0625	100.093	100.182	199.725
10.065	100.092	100.182	199.726
10.0675	100.091	100.182	199.726
10.07	100.09	100.183	199.727
10.0725	100.089	100.183	199.728
10.075	100.088	100.183	199.729
10.0775	100.087	100.183	199.73
10.08	100.086	100.184	199.73
10.0825	100.085	100.184	199.731
10.085	100.084	100.184	199.732
10.0875	100.083	100.184	199.733
10.09	100.082	100.184	199.733
10.0925	100.081	100.185	199.734
10.095	100.08	100.185	199.735
10.0975	100.079	100.185	199.736
10.1	100.078	100.185	199.737
10.1025	100.077	100.185	199.737
10.105	100.076	100.186	199.738
10.1075	100.075	100.186	199.739
10.11	100.074	100.186	199.74
10.1125	100.073	100.186	199.741
10.115	100.072	100.186	199.741
10.1175	100.071	100.186	199.742
10.12	100.07	100.187	199.743
10.1225	100.069	100.187	199.744
10.125	100.068	100.187	199.745
10.1275	100.067	100.187	199.745
10.13	100.067	100.187	199.746
10.1325	100.066	100.188	199.747
10.135	100.065	100.188	199.748
10.1375	100.064	100.188	199.748
10.14	100.063	100.188	199.749
10.1425	100.062	100.188	199.75
10.145	100.061	100.188	199.751
10.1475	100.06	100.188	199.752
10.15	100.059	100.189	199.752
10.1525	100.058	100.189	199.753
10.155	100.057	100.189	199.754
10.1575	100.056	100.189	199.755
10.16	100.055	100.189	199.756
10.1625	100.054	100.189	199.756
10.165	100.053	100.189	199.757
10.1675	100.053	100.19	199.758
10.17	100.052	100.19	199.759
10.1725	100.051	100.19	199.759
10.175	100.05	100.19	199.76
10.1775	100.049	100.19	199.761
10.18	100.048	100.19	199.762
10.1825	100.047	100.19	199.762
10.185	100.046	100.19	199.763
10.1875	100.045	100.191	199.764
10.19	100.045	100.191	199.765
10.1925	100.044	100.191	199.766
10.195	100.043	100.191	199.766
10.1975	100.042	100.191	199.767
10.2	100.041	100.191	199.768
10.2025	100.04	100.191	199.769
10.205	100.039	100.191	199.769
10.2075	100.038	100.191	199.77
10.21	100.038	100.192	199.771
10.2125	100.037	100.192	199.772
10.215	100.036	100.192	199.772
10.2175	100.035	100.192	199.773
10.22	100.034	100.192	199.774
10.2225	100.033	100.192	199.775
10.225	100.032	100.192	199.776
10.2275	100.032	100.192	199.776
10.23	100.031	100.192	199.777
10.2325	100.03	100.192	199.778
10.235	100.029	100.192	199.779
10.2375	100.028	100.192	199.779
10.24	100.027	100.192	199.78
10.2425	100.027	100.193	199.781
10.245	100.026	100.193	199.782
10.2475	100.025	100.193	199.782
10.25	100.024	100.193	199.783
10.2525	100.023	100.193	199.784
10.255	100.023	100.193	199.785
10.2575	100.022	100.193	199.785
10.26	100.021	100.193	199.786
10.2625	100.02	100.193	199.787
10.265	100.019	100.193	199.788
10.2675	100.019	100.193	199.788
10.27	100.018	100.193	199.789
10.2725	100.017	100.193	199.79
10.275	100.016	100.193	199.791
10.2775	100.015	100.193	199.791
10.28	100.015	100.193	199.792
10.2825	100.014	100.193	199.793
10.285	100.013	100.193	199.794
10.2875	100.012	100.193	199.794
10.29	100.012	100.193	199.795
10.2925	100.011	100.193	199.796
10.295	100.01	100.194	199.797
10.2975	100.009	100.194	199.797
10.3	100.008	100.194	199.798
10.3025	100.008	100.194	199.799
10.305	100.007	100.194	199.799
10.3075	100.006	100.194	199.8
10.31	100.005	100.194	199.801
10.3125	100.005	100.194	199.802
10.315	100.004	100.194	199.802
10.3175	100.003	100.194	199.803
10.32	100.002	100.194	199.804
10.3225	100.002	100.194	199.805
10.325	100.001	100.194	199.805
10.3275	100	100.194	199.806
10.33	99.9996	100.194	199.807
10.3325	99.9988	100.194	199.807
10.335	99.9981	100.194	199.808
10.3375	99.9974	100.194	199.809
10.34	99.9967	100.194	199.81
10.3425	99.996	100.194	199.81
10.345	99.9953	100.194	199.811
10.3475	99.9946	100.194	199.812
10.35	99.9939	100.194	199.813
10.3525	99.9932	100.194	199.813
10.355	99.9925	100.194	199.814
10.3575	99.9918	100.194	199.815
10.36	99.9911	100.194	199.815
10.3625	99.9904	100.194	199.816
10.365	99.9897	100.193	199.817
10.3675	99.989	100.193	199.818
10.37	99.9883	100.193	199.818
10.3725	99.9876	100.193	199.819
10.375	99.987	100.193	199.82
10.3775	99.9863	100.193	199.82
10.38	99.9856	100.193	199.821
10.3825	99.9849	100.193	199.822
10.385	99.9843	100.193	199.823
10.3875	99.9836	100.193	199.823
10.39	99.983	100.193	199.824
10.3925	99.9823	100.193	199.825
10.395	99.9816	100.193	199.825
10.3975	99.981	100.193	199.826
10.4	99.9803	100.193	199.827
10.4025	99.9797	100.193	199.827
10.405	99.979	100.193	199.828
10.4075	99.9784	100.193	199.829
10.41	99.9778	100.193	199.83
10.4125	99.9771	100.193	199.83
10.415	99.9765	100.193	199.831
10.4175	99.9758	100.193	199.832
10.42	99.9752	100.193	199.832
10.4225	99.9746	100.192	199.833
10.425	99.974	100.192	199.834
10.4275	99.9733	100.192	199.834
10.43	99.9727	100.192	199.835
10.4325	99.9721	100.192	199.836
10.435	99.9715	100.192	199.836
10.4375	99.9709	100.192	199.837
10.44	99.9703	100.192	199.838
10.4425	99.9697	100.192	199.838
10.445	99.9691	100.192	199.839
10.4475	99.9685	100.192	199.84
10.45	99.9679	100.192	199.84
10.4525	99.9673	100.192	199.841
10.455	99.9667	100.191	199.842
10.4575	99.9661	100.191	199.843
10.46	99.9655	100.191	199.843
10.4625	99.9649	100.191	199.844
10.465	99.9643	100.191	199.845
10.4675	99.9637	100.191	199.845
10.47	99.9632	100.191	199.846
10.4725	99.9626	100.191	199.847
10.475	99.962	100.191	199.847
10.4775	99.9614	100.191	199.848
10.48	99.9609	100.191	199.849
10.4825	99.9603	100.19	199.849
10.485	99.9597	100.19	199.85
10.4875	99.9592	100.19	199.851
10.49	99.9586	100.19	199.851
10.4925	99.9581	100.19	199.852
10.495	99.9575	100.19	199.853
10.4975	99.957	100.19	199.853
10.5	99.9564	100.19	199.854
10.5025	99.9559	100.19	199.855
10.505	99.9553	100.19	199.855
10.5075	99.9548	100.189	199.856
10.51	99.9542	100.189	199.856
10.5125	99.9537	100.189	199.857
10.515	99.9532	100.189	199.858
10.5175	99.9526	100.189	199.858
10.52	99.9521	100.189	199.859
10.5225	99.9516	100.189	199.86
10.525	99.951	100.189	199.86
10.5275	99.9505	100.188	199.861
10.53	99.95	100.188	199.862
10.5325	99.9495	100.188	199.862
10.535	99.949	100.188	199.863
10.5375	99.9485	100.188	199.864
10.54	99.9479	100.188	199.864
10.5425	99.9474	100.188	199.865
10.545	99.9469	100.188	199.865
10.5475	99.9464	100.187	199.866
10.55	99.9459	100.187	199.867
10.5525	99.9454	100.187	199.867
10.555	99.9449	100.187	199.868
10.5575	99.9444	100.187	199.869
10.56	99.944	100.187	199.869
10.5625	99.9435	100.187	199.87
10.565	99.943	100.186	199.871
10.5675	99.9425	100.186	199.871
10.57	99.942	100.186	199.872
10.5725	99.9415	100.186	199.872
10.575	99.9411	100.186	199.873
10.5775	99.9406	100.186	199.874
10.58	99.9401	100.186	199.874
10.5825	99.9396	100.185	199.875
10.585	99.9392	100.185	199.876
10.5875	99.9387	100.185	199.876
10.59	99.9382	100.185	199.877
10.5925	99.9378	100.185	199.877
10.595	99.9373	100.185	199.878
10.5975	99.9369	100.185	199.879
10.6	99.9364	100.184	199.879
10.6025	99.936	100.184	199.88
10.605	99.9355	100.184	199.88
10.6075	99.9351	100.184	199.881
10.61	99.9346	100.184	199.882
10.6125	99.9342	100.184	199.882
10.615	99.9337	100.183	199.883
10.6175	99.9333	100.183	199.883
10.62	99.9329	100.183	199.884
10.6225	99.9324	100.183	199.885
10.625	99.932	100.183	199.885
10.6275	99.9316	100.183	199.886
10.63	99.9311	100.182	199.886
10.6325	99.9307	100.182	199.887
10.635	99.9303	100.182	199.888
10.6375	99.9299	100.182	199.888
10.64	99.9295	100.182	199.889
10.6425	99.9291	100.181	199.889
10.645	99.9286	100.181	199.89
10.6475	99.9282	100.181	199.891
10.65	99.9278	100.181	199.891
10.6525	99.9274	100.181	199.892
10.655	99.927	100.181	199.892
10.6575	99.9266	100.18	199.893
10.66	99.9262	100.18	199.894
10.6625	99.9258	100.18	199.894
10.665	99.9254	100.18	199.895
10.6675	99.925	100.18	199.895
10.67	99.9246	100.179	199.896
10.6725	99.9242	100.179	199.896
10.675	99.9239	100.179	199.897
10.6775	99.9235	100.179	199.898
10.68	99.9231	100.179	199.898
10.6825	99.9227	100.179	199.899
10.685	99.9223	100.178	199.899
10.6875	99.922	100.178	199.9
10.69	99.9216	100.178	199.9
10.6925	99.9212	100.178	199.901
10.695	99.9208	100.178	199.902
10.6975	99.9205	100.177	199.902
10.7	99.9201	100.177	199.903
10.7025	99.9197	100.177	199.903
10.705	99.9194	100.177	199.904
10.7075	99.919	100.177	199.904
10.71	99.9187	100.176	199.905
10.7125	99.9183	100.176	199.906
10.715	99.918	100.176	199.906
10.7175	99.9176	100.176	199.907
10.72	99.9173	100.176	199.907
10.7225	99.9169	100.175	199.908
10.725	99.9166	100.175	199.908
10.7275	99.9162	100.175	199.909
10.73	99.9159	100.175	199.909
10.7325	99.9155	100.174	199.91
10.735	99.9152	100.174	199.911
10.7375	99.9149	100.174	199.911
10.74	99.9145	100.174	199.912
10.7425	99.9142	100.174	199.912
10.745	99.9139	100.173	199.913
10.7475	99.9136	100.173	199.913
10.75	99.9132	100.173	199.914
10.7525	99.9129	100.173	199.914
10.755	99.9126	100.173	199.915
10.7575	99.9123	100.172	199.915
10.76	99.912	100.172	199.916
10.7625	99.9116	100.172	199.916
10.765	99.9113	100.172	199.917
10.7675	99.911	100.171	199.918
10.77	99.9107	100.171	199.918
10.7725	99.9104	100.171	199.919
10.775	99.9101	100.171	199.919
10.7775	99.9098	100.171	199.92
10.78	99.9095	100.17	199.92
10.7825	99.9092	100.17	199.921
10.785	99.9089	100.17	199.921
10.7875	99.9086	100.17	199.922
10.79	99.9083	100.169	199.922
10.7925	99.908	100.169	199.923
10.795	99.9077	100.169	199.923
10.7975	99.9075	100.169	199.924
10.8	99.9072	100.168	199.924
10.8025	99.9069	100.168	199.925
10.805	99.9066	100.168	199.925
10.8075	99.9063	100.168	199.926
10.81	99.9061	100.168	199.926
10.8125	99.9058	100.167	199.927
10.815	99.9055	100.167	199.927
10.8175	99.9052	100.167	199.928
10.82	99.905	100.167	199.928
10.8225	99.9047	100.166	199.929
10.825	99.9044	100.166	199.929
10.8275	99.9042	100.166	199.93
10.83	99.9039	100.166	199.93
10.8325	99.9037	100.165	199.931
10.835	99.9034	100.165	199.931
10.8375	99.9031	100.165	199.932
10.84	99.9029	100.165	199.932
10.8425	99.9026	100.164	199.933
10.845	99.9024	100.164	199.933
10.8475	99.9021	100.164	199.934
10.85	99.9019	100.164	199.934
10.8525	99.9016	100.163	199.935
10.855	99.9014	100.163	199.935
10.8575	99.9012	100.163	199.936
10.86	99.9009	100.163	199.936
10.8625	99.9007	100.162	199.937
10.865	99.9005	100.162	199.937
10.8675	99.9002	100.162	199.938
10.87	99.9	100.162	199.938
10.8725	99.8998	100.161	199.939
10.875	99.8995	100.161	199.939
10.8775	99.8993	100.161	199.94
10.88	99.8991	100.161	199.94
10.8825	99.8989	100.16	199.941
10.885	99.8986	100.16	199.941
10.8875	99.8984	100.16	199.942
10.89	99.8982	100.16	199.942
10.8925	99.898	100.159	199.943
10.895	99.8978	100.159	199.943
10.8975	99.8976	100.159	199.944
10.9	99.8973	100.159	199.944
10.9025	99.8971	100.158	199.944
10.905	99.8969	100.158	199.945
10.9075	99.8967	100.158	199.945
10.91	99.8965	100.158	199.946
10.9125	99.8963	100.157	199.946
10.915	99.8961	100.157	199.947
10.9175	99.8959	100.157	199.947
10.92	99.8957	100.157	199.948
10.9225	99.8955	100.156	199.948
10.925	99.8953	100.156	199.949
10.9275	99.8951	100.156	199.949
10.93	99.895	100.156	199.95
10.9325	99.8948	100.155	199.95
10.935	99.8946	100.155	199.95
10.9375	99.8944	100.155	199.951
10.94	99.8942	100.154	199.951
10.9425	99.894	100.154	199.952
10.945	99.8939	100.154	199.952
10.9475	99.8937	100.154	199.953
10.95	99.8935	100.153	199.953
10.9525	99.8933	100.153	199.954
10.955	99.8932	100.153	199.954
10.9575	99.893	100.153	199.954
10.96	99.8928	100.152	199.955
10.9625	99.8926	100.152	199.955
10.965	99.8925	100.152	199.956
10.9675	99.8923	100.152	199.956
10.97	99.8921	100.151	199.957
10.9725	99.892	100.151	199.957
10.975	99.8918	100.151	199.957
10.9775	99.8917	100.15	199.958
10.98	99.8915	100.15	199.958
10.9825	99.8914	100.15	199.959
10.985	99.8912	100.15	199.959
10.9875	99.8911	100.149	199.96
10.99	99.8909	100.149	199.96
10.9925	99.8908	100.149	199.96
10.995	99.8906	100.149	199.961
10.9975	99.8905	100.148	199.961
11	99.8903	100.148	199.962
11.0025	99.8902	100.148	199.962
11.005	99.89	100.147	199.963
11.0075	99.8899	100.147	199.963
11.01	99.8898	100.147	199.963
11.0125	99.8896	100.147	199.964
11.015	99.8895	100.146	199.964
11.0175	99.8894	100.146	199.965
11.02	99.8892	100.146	199.965
11.0225	99.8891	100.145	199.965
11.025	99.889	100.145	199.966
11.0275	99.8888	100.145	199.966
11.03	99.8887	100.145	199.967
11.0325	99.8886	100.144	199.967
11.035	99.8885	100.144	199.967
11.0375	99.8883	100.144	199.968
11.04	99.8882	100.144	199.968
11.0425	99.8881	100.143	199.969
11.045	99.888	100.143	199.969
11.0475	99.8879	100.143	199.969
11.05	99.8878	100.142	199.97
11.0525	99.8876	100.142	199.97
11.055	99.8875	100.142	199.971
11.0575	99.8874	100.142	199.971
11.06	99.8873	100.141	199.971
11.0625	99.8872	100.141	199.972
11.065	99.8871	100.141	199.972
11.0675	99.887	100.14	199.973
11.07	99.8869	100.14	199.973
11.0725	99.8868	100.14	199.973
11.075	99.8867	100.14	199.974
11.0775	99.8866	100.139	199.974
11.08	99.8865	100.139	199.974
11.0825	99.8864	100.139	199.975
11.085	99.8863	100.138	199.975
11.0875	99.8862	100.138	199.976
11.09	99.8861	100.138	199.976
11.0925	99.8861	100.138	199.976
11.095	99.886	100.137	199.977
11.0975	99.8859	100.137	199.977
11.1	99.8858	100.137	199.977
11.1025	99.8857	100.136	199.978
11.105	99.8856	100.136	199.978
11.1075	99.8855	100.136	199.979
11.11	99.8855	100.136	199.979
11.1125	99.8854	100.135	199.979
11.115	99.8853	100.135	199.98
11.1175	99.8852	100.135	199.98
11.12	99.8852	100.134	199.98
11.1225	99.8851	100.134	199.981
11.125	99.885	100.134	199.981
11.1275	99.8849	100.134	199.981
11.13	99.8849	100.133	199.982
11.1325	99.8848	100.133	199.982
11.135	99.8847	100.133	199.983
11.1375	99.8847	100.132	199.983
11.14	99.8846	100.132	199.983
11.1425	99.8846	100.132	199.984
11.145	99.8845	100.132	199.984
11.1475	99.8844	100.131	199.984
11.15	99.8844	100.131	199.985
11.1525	99.8843	100.131	199.985
11.155	99.8843	100.13	199.985
11.1575	99.8842	100.13	199.986
11.16	99.8842	100.13	199.986
11.1625	99.8841	100.13	199.986
11.165	99.8841	100.129	199.987
11.1675	99.884	100.129	199.987
11.17	99.884	100.129	199.987
11.1725	99.8839	100.128	199.988
11.175	99.8839	100.128	199.988
11.1775	99.8838	100.128	199.988
11.18	99.8838	100.128	199.989
11.1825	99.8837	100.127	199.989
11.185	99.8837	100.127	199.989
11.1875	99.8837	100.127	199.99
11.19	99.8836	100.126	199.99
11.1925	99.8836	100.126	199.99
11.195	99.8836	100.126	199.991
11.1975	99.8835	100.125	199.991
11.2	99.8835	100.125	199.991
11.2025	99.8835	100.125	199.992
11.205	99.8834	100.125	199.992
11.2075	99.8834	100.124	199.992
11.21	99.8834	100.124	199.993
11.2125	99.8833	100.124	199.993
11.215	99.8833	100.123	199.993
11.2175	99.8833	100.123	199.994
11.22	99.8833	100.123	199.994
11.2225	99.8832	100.123	199.994
11.225	99.8832	100.122	199.995
11.2275	99.8832	100.122	199.995
11.23	99.8832	100.122	199.995
11.2325	99.8832	100.121	199.995
11.235	99.8832	100.121	199.996
11.2375	99.8831	100.121	199.996
11.24	99.8831	100.121	199.996
11.2425	99.8831	100.12	199.997
11.245	99.8831	100.12	199.997
11.2475	99.8831	100.12	199.997
11.25	99.8831	100.119	199.998
11.2525	99.8831	100.119	199.998
11.255	99.8831	100.119	199.998
11.2575	99.8831	100.118	199.998
11.26	99.8831	100.118	199.999
11.2625	99.8831	100.118	199.999
11.265	99.8831	100.118	199.999
11.2675	99.883	100.117	200
11.27	99.883	100.117	200
11.2725	99.883	100.117	200
11.275	99.8831	100.116	200.001
11.2775	99.8831	100.116	200.001
11.28	99.8831	100.116	200.001
11.2825	99.8831	100.116	200.001
11.285	99.8831	100.115	200.002
11.2875	99.8831	100.115	200.002
11.29	99.8831	100.115	200.002
11.2925	99.8831	100.114	200.003
11.295	99.8831	100.114	200.003
11.2975	99.8831	100.114	200.003
11.3	99.8831	100.113	200.003
11.3025	99.8831	100.113	200.004
11.305	99.8832	100.113	200.004
11.3075	99.8832	100.113	200.004
11.31	99.8832	100.112	200.004
11.3125	99.8832	100.112	200.005
11.315	99.8832	100.112	200.005
11.3175	99.8832	100.111	200.005
11.32	99.8833	100.111	200.006
11.3225	99.8833	100.111	200.006
11.325	99.8833	100.111	200.006
11.3275	99.8833	100.11	200.006
11.33	99.8834	100.11	200.007
11.3325	99.8834	100.11	200.007
11.335	99.8834	100.109	200.007
11.3375	99.8834	100.109	200.007
11.34	99.8835	100.109	200.008
11.3425	99.8835	100.109	200.008
11.345	99.8835	100.108	200.008
11.3475	99.8836	100.108	200.009
11.35	99.8836	100.108	200.009
11.3525	99.8836	100.107	200.009
11.355	99.8837	100.107	200.009
11.3575	99.8837	100.107	200.01
11.36	99.8837	100.106	200.01
11.3625	99.8838	100.106	200.01
11.365	99.8838	100.106	200.01
11.3675	99.8838	100.106	200.011
11.37	99.8839	100.105	200.011
11.3725	99.8839	100.105	200.011
11.375	99.884	100.105	200.011
11.3775	99.884	100.104	200.012
11.38	99.8841	100.104	200.012
11.3825	99.8841	100.104	200.012
11.385	99.8842	100.104	200.012
11.3875	99.8842	100.103	200.013
11.39	99.8842	100.103	200.013
11.3925	99.8843	100.103	200.013
11.395	99.8843	100.102	200.013
11.3975	99.8844	100.102	200.013
11.4	99.8844	100.102	200.014
11.4025	99.8845	100.102	200.014
11.405	99.8845	100.101	200.014
11.4075	99.8846	100.101	200.014
11.41	99.8847	100.101	200.015
11.4125	99.8847	100.1	200.015
11.415	99.8848	100.1	200.015
11.4175	99.8848	100.1	200.015
11.42	99.8849	100.1	200.016
11.4225	99.8849	100.099	200.016
11.425	99.885	100.099	200.016
11.4275	99.8851	100.099	200.016
11.43	99.8851	100.098	200.016
11.4325	99.8852	100.098	200.017
11.435	99.8853	100.098	200.017
11.4375	99.8853	100.098	200.017
11.44	99.8854	100.097	200.017
11.4425	99.8854	100.097	200.018
11.445	99.8855	100.097	200.018
11.4475	99.8856	100.096	200.018
11.45	99.8857	100.096	200.018
11.4525	99.8857	100.096	200.018
11.455	99.8858	100.096	200.019
11.4575	99.8859	100.095	200.019
11.46	99.8859	100.095	200.019
11.4625	99.886	100.095	200.019
11.465	99.8861	100.094	200.02
11.4675	99.8862	100.094	200.02
11.47	99.8862	100.094	200.02
11.4725	99.8863	100.094	200.02
11.475	99.8864	100.093	200.02
11.4775	99.8865	100.093	200.021
11.48	99.8865	100.093	200.021
11.4825	99.8866	100.092	200.021
11.485	99.8867	100.092	200.021
11.4875	99.8868	100.092	200.021
11.49	99.8869	100.092	200.022
11.4925	99.8869	100.091	200.022
11.495	99.887	100.091	200.022
11.4975	99.8871	100.091	200.022
11.5	99.8872	100.09	200.022
11.5025	99.8873	100.09	200.023
11.505	99.8874	100.09	200.023
11.5075	99.8874	100.09	200.023
11.51	99.8875	100.089	200.023
11.5125	99.8876	100.089	200.023
11.515	99.8877	100.089	200.024
11.5175	99.8878	100.088	200.024
11.52	99.8879	100.088	200.024
11.5225	99.888	100.088	200.024
11.525	99.8881	100.088	200.024
11.5275	99.8882	100.087	200.025
11.53	99.8882	100.087	200.025
11.5325	99.8883	100.087	200.025
11.535	99.8884	100.086	200.025
11.5375	99.8885	100.086	200.025
11.54	99.8886	100.086	200.025
11.5425	99.8887	100.086	200.026
11.545	99.8888	100.085	200.026
11.5475	99.8889	100.085	200.026
11.55	99.889	100.085	200.026
11.5525	99.8891	100.085	200.026
11.555	99.8892	100.084	200.027
11.5575	99.8893	100.084	200.027
11.56	99.8894	100.084	200.027
11.5625	99.8895	100.083	200.027
11.565	99.8896	100.083	200.027
11.5675	99.8897	100.083	200.027
11.57	99.8898	100.083	200.028
11.5725	99.8899	100.082	200.028
11.575	99.89	100.082	200.028
11.5775	99.8901	100.082	200.028
11.58	99.8902	100.081	200.028
11.5825	99.8903	100.081	200.028
11.585	99.8905	100.081	200.029
11.5875	99.8906	100.081	200.029
11.59	99.8907	100.08	200.029
11.5925	99.8908	100.08	200.029
11.595	99.8909	100.08	200.029
11.5975	99.891	100.08	200.029
11.6	99.8911	100.079	200.03
11.6025	99.8912	100.079	200.03
11.605	99.8913	100.079	200.03
11.6075	99.8914	100.078	200.03
11.61	99.8916	100.078	200.03
11.6125	99.8917	100.078	200.03
11.615	99.8918	100.078	200.031
11.6175	99.8919	100.077	200.031
11.62	99.892	100.077	200.031
11.6225	99.8921	100.077	200.031
11.625	99.8923	100.077	200.031
11.6275	99.8924	100.076	200.031
11.63	99.8925	100.076	200.031
11.6325	99.8926	100.076	200.032
11.635	99.8927	100.076	200.032
11.6375	99.8928	100.075	200.032
11.64	99.893	100.075	200.032
11.6425	99.8931	100.075	200.032
11.645	99.8932	100.074	200.032
11.6475	99.8933	100.074	200.032
11.65	99.8935	100.074	200.033
11.6525	99.8936	100.074	200.033
11.655	99.8937	100.073	200.033
11.6575	99.8938	100.073	200.033
11.66	99.8939	100.073	200.033
11.6625	99.8941	100.073	200.033
11.665	99.8942	100.072	200.033
11.6675	99.8943	100.072	200.034
11.67	99.8945	100.072	200.034
11.6725	99.8946	100.072	200.034
11.675	99.8947	100.071	200.034
11.6775	99.8948	100.071	200.034
11.68	99.895	100.071	200.034
11.6825	99.8951	100.07	200.034
11.685	99.8952	100.07	200.035
11.6875	99.8954	100.07	200.035
11.69	99.8955	100.07	200.035
11.6925	99.8956	100.069	200.035
11.695	99.8957	100.069	200.035
11.6975	99.8959	100.069	200.035
11.7	99.896	100.069	200.035
11.7025	99.8961	100.068	200.035
11.705	99.8963	100.068	200.036
11.7075	99.8964	100.068	200.036
11.71	99.8965	100.068	200.036
11.7125	99.8967	100.067	200.036
11.715	99.8968	100.067	200.036
11.7175	99.8969	100.067	200.036
11.72	99.8971	100.067	200.036
11.7225	99.8972	100.066	200.036
11.725	99.8974	100.066	200.037
11.7275	99.8975	100.066	200.037
11.73	99.8976	100.066	200.037
11.7325	99.8978	100.065	200.037
11.735	99.8979	100.065	200.037
11.7375	99.8981	100.065	200.037
11.74	99.8982	100.065	200.037
11.7425	99.8983	100.064	200.037
11.745	99.8985	100.064	200.038
11.7475	99.8986	100.064	200.038
11.75	99.8988	100.064	200.038
11.7525	99.8989	100.063	200.038
11.755	99.899	100.063	200.038
11.7575	99.8992	100.063	200.038
11.76	99.8993	100.062	200.038
11.7625	99.8995	100.062	200.038
11.765	99.8996	100.062	200.038
11.7675	99.8998	100.062	200.039
11.77	99.8999	100.061	200.039
11.7725	99.9	100.061	200.039
11.775	99.9002	100.061	200.039
11.7775	99.9003	100.061	200.039
11.78	99.9005	100.06	200.039
11.7825	99.9006	100.06	200.039
11.785	99.9008	100.06	200.039
11.7875	99.9009	100.06	200.039
11.79	99.9011	100.059	200.039
11.7925	99.9012	100.059	200.04
11.795	99.9014	100.059	200.04
11.7975	99.9015	100.059	200.04
11.8	99.9017	100.059	200.04
11.8025	99.9018	100.058	200.04
11.805	99.902	100.058	200.04
11.8075	99.9021	100.058	200.04
11.81	99.9023	100.058	200.04
11.8125	99.9024	100.057	200.04
11.815	99.9026	100.057	200.04
11.8175	99.9027	100.057	200.04
11.82	99.9029	100.057	200.041
11.8225	99.903	100.056	200.041
11.825	99.9032	100.056	200.041
11.8275	99.9033	100.056	200.041
11.83	99.9035	100.056	200.041
11.8325	99.9036	100.055	200.041
11.835	99.9038	100.055	200.041
11.8375	99.904	100.055	200.041
11.84	99.9041	100.055	200.041
11.8425	99.9043	100.054	200.041
11.845	99.9044	100.054	200.041
11.8475	99.9046	100.054	200.042
11.85	99.9047	100.054	200.042
11.8525	99.9049	100.053	200.042
11.855	99.905	100.053	200.042
11.8575	99.9052	100.053	200.042
11.86	99.9054	100.053	200.042
11.8625	99.9055	100.052	200.042
11.865	99.9057	100.052	200.042
11.8675	99.9058	100.052	200.042
11.87	99.906	100.052	200.042
11.8725	99.9061	100.052	200.042
11.875	99.9063	100.051	200.042
11.8775	99.9065	100.051	200.042
11.88	99.9066	100.051	200.043
11.8825	99.9068	100.051	200.043
11.885	99.9069	100.05	200.043
11.8875	99.9071	100.05	200.043
11.89	99.9073	100.05	200.043
11.8925	99.9074	100.05	200.043
11.895	99.9076	100.049	200.043
11.8975	99.9077	100.049	200.043
11.9	99.9079	100.049	200.043
11.9025	99.9081	100.049	200.043
11.905	99.9082	100.049	200.043
11.9075	99.9084	100.048	200.043
11.91	99.9086	100.048	200.043
11.9125	99.9087	100.048	200.043
11.915	99.9089	100.048	200.044
11.9175	99.909	100.047	200.044
11.92	99.9092	100.047	200.044
11.9225	99.9094	100.047	200.044
11.925	99.9095	100.047	200.044
11.9275	99.9097	100.046	200.044
11.93	99.9099	100.046	200.044
11.9325	99.91	100.046	200.044
11.935	99.9102	100.046	200.044
11.9375	99.9104	100.046	200.044
11.94	99.9105	100.045	200.044
11.9425	99.9107	100.045	200.044
11.945	99.9109	100.045	200.044
11.9475	99.911	100.045	200.044
11.95	99.9112	100.044	200.044
11.9525	99.9114	100.044	200.044
11.955	99.9115	100.044	200.044
11.9575	99.9117	100.044	200.045
11.96	99.9119	100.044	200.045
11.9625	99.912	100.043	200.045
11.965	99.9122	100.043	200.045
11.9675	99.9124	100.043	200.045
11.97	99.9125	100.043	200.045
11.9725	99.9127	100.042	200.045
11.975	99.9129	100.042	200.045
11.9775	99.913	100.042	200.045
11.98	99.9132	100.042	200.045
11.9825	99.9134	100.042	200.045
11.985	99.9135	100.041	200.045
11.9875	99.9137	100.041	200.045
11.99	99.9139	100.041	200.045
11.9925	99.914	100.041	200.045
11.995	99.9142	100.041	200.045
11.9975	99.9144	100.04	200.045
12	99.9146	100.04	200.045
12.0025	99.9147	100.04	200.045
12.005	99.9149	100.04	200.045
12.0075	99.9151	100.039	200.045
12.01	99.9152	100.039	200.046
12.0125	99.9154	100.039	200.046
12.015	99.9156	100.039	200.046
12.0175	99.9158	100.039	200.046
12.02	99.9159	100.038	200.046
12.0225	99.9161	100.038	200.046
12.025	99.9163	100.038	200.046
12.0275	99.9164	100.038	200.046
12.03	99.9166	100.038	200.046
12.0325	99.9168	100.037	200.046
12.035	99.917	100.037	200.046
12.0375	99.9171	100.037	200.046
12.04	99.9173	100.037	200.046
12.0425	99.9175	100.037	200.046
12.045	99.9176	100.036	200.046
12.0475	99.9178	100.036	200.046
12.05	99.918	100.036	200.046
12.0525	99.9182	100.036	200.046
12.055	99.9183	100.035	200.046
12.0575	99.9185	100.035	200.046
12.06	99.9187	100.035	200.046
12.0625	99.9189	100.035	200.046
12.065	99.919	100.035	200.046
12.0675	99.9192	100.034	200.046
12.07	99.9194	100.034	200.046
12.0725	99.9196	100.034	200.046
12.075	99.9197	100.034	200.046
12.0775	99.9199	100.034	200.046
12.08	99.9201	100.033	200.046
12.0825	99.9202	100.033	200.046
12.085	99.9204	100.033	200.046
12.0875	99.9206	100.033	200.047
12.09	99.9208	100.033	200.047
12.0925	99.9209	100.032	200.047
12.095	99.9211	100.032	200.047
12.0975	99.9213	100.032	200.047
12.1	99.9215	100.032	200.047
12.1025	99.9216	100.032	200.047
12.105	99.9218	100.032	200.047
12.1075	99.922	100.031	200.047
12.11	99.9222	100.031	200.047
12.1125	99.9223	100.031	200.047
12.115	99.9225	100.031	200.047
12.1175	99.9227	100.031	200.047
12.12	99.9229	100.03	200.047
12.1225	99.923	100.03	200.047
12.125	99.9232	100.03	200.047
12.1275	99.9234	100.03	200.047
12.13	99.9236	100.03	200.047
12.1325	99.9238	100.029	200.047
12.135	99.9239	100.029	200.047
12.1375	99.9241	100.029	200.047
12.14	99.9243	100.029	200.047
12.1425	99.9245	100.029	200.047
12.145	99.9246	100.028	200.047
12.1475	99.9248	100.028	200.047
12.15	99.925	100.028	200.047
12.1525	99.9252	100.028	200.047
12.155	99.9253	100.028	200.047
12.1575	99.9255	100.027	200.047
12.16	99.9257	100.027	200.047
12.1625	99.9259	100.027	200.047
12.165	99.926	100.027	200.047
12.1675	99.9262	100.027	200.047
12.17	99.9264	100.027	200.047
12.1725	99.9266	100.026	200.047
12.175	99.9267	100.026	200.047
12.1775	99.9269	100.026	200.047
12.18	99.9271	100.026	200.047
12.1825	99.9273	100.026	200.047
12.185	99.9275	100.025	200.047
12.1875	99.9276	100.025	200.047
12.19	99.9278	100.025	200.047
12.1925	99.928	100.025	200.047
12.195	99.9282	100.025	200.047
12.1975	99.9283	100.025	200.047
12.2	99.9285	100.024	200.047
12.2025	99.9287	100.024	200.047
12.205	99.9289	100.024	200.047
12.2075	99.929	100.024	200.047
12.21	99.9292	100.024	200.047
12.2125	99.9294	100.024	200.047
12.215	99.9296	100.023	200.047
12.2175	99.9298	100.023	200.047
12.22	99.9299	100.023	200.047
12.2225	99.9301	100.023	200.047
12.225	99.9303	100.023	200.047
12.2275	99.9305	100.022	200.047
12.23	99.9306	100.022	200.047
12.2325	99.9308	100.022	200.047
12.235	99.931	100.022	200.047
12.2375	99.9312	100.022	200.047
12.24	99.9313	100.022	200.047
12.2425	99.9315	100.021	200.047
12.245	99.9317	100.021	200.047
12.2475	99.9319	100.021	200.047
12.25	99.932	100.021	200.047
12.2525	99.9322	100.021	200.047
12.255	99.9324	100.021	200.047
12.2575	99.9326	100.02	200.047
12.26	99.9328	100.02	200.047
12.2625	99.9329	100.02	200.047
12.265	99.9331	100.02	200.047
12.2675	99.9333	100.02	200.047
12.27	99.9335	100.02	200.047
12.2725	99.9336	100.019	200.047
12.275	99.9338	100.019	200.047
12.2775	99.934	100.019	200.047
12.28	99.9342	100.019	200.047
12.2825	99.9343	100.019	200.047
12.285	99.9345	100.019	200.047
12.2875	99.9347	100.018	200.047
12.29	99.9349	100.018	200.047
12.2925	99.935	100.018	200.047
12.295	99.9352	100.018	200.047
12.2975	99.9354	100.018	200.047
12.3	99.9356	100.018	200.047
12.3025	99.9357	100.017	200.047
12.305	99.9359	100.017	200.047
12.3075	99.9361	100.017	200.047
12.31	99.9363	100.017	200.047
12.3125	99.9364	100.017	200.047
12.315	99.9366	100.017	200.047
12.3175	99.9368	100.016	200.047
12.32	99.937	100.016	200.047
12.3225	99.9371	100.016	200.047
12.325	99.9373	100.016	200.047
12.3275	99.9375	100.016	200.047
12.33	99.9377	100.016	200.047
12.3325	99.9378	100.016	200.047
12.335	99.938	100.015	200.047
12.3375	99.9382	100.015	200.047
12.34	99.9384	100.015	200.047
12.3425	99.9385	100.015	200.047
12.345	99.9387	100.015	200.047
12.3475	99.9389	100.015	200.046
12.35	99.9391	100.014	200.046
12.3525	99.9392	100.014	200.046
12.355	99.9394	100.014	200.046
12.3575	99.9396	100.014	200.046
12.36	99.9398	100.014	200.046
12.3625	99.9399	100.014	200.046
12.365	99.9401	100.014	200.046
12.3675	99.9403	100.013	200.046
12.37	99.9405	100.013	200.046
12.3725	99.9406	100.013	200.046
12.375	99.9408	100.013	200.046
12.3775	99.941	100.013	200.046
12.38	99.9412	100.013	200.046
12.3825	99.9413	100.013	200.046
12.385	99.9415	100.012	200.046
12.3875	99.9417	100.012	200.046
12.39	99.9418	100.012	200.046
12.3925	99.942	100.012	200.046
12.395	99.9422	100.012	200.046
12.3975	99.9424	100.012	200.046
12.4	99.9425	100.011	200.046
12.4025	99.9427	100.011	200.046
12.405	99.9429	100.011	200.046
12.4075	99.9431	100.011	200.046
12.41	99.9432	100.011	200.046
12.4125	99.9434	100.011	200.046
12.415	99.9436	100.011	200.046
12.4175	99.9437	100.011	200.046
12.42	99.9439	100.01	200.046
12.4225	99.9441	100.01	200.046
12.425	99.9443	100.01	200.046
12.4275	99.9444	100.01	200.046
12.43	99.9446	100.01	200.046
12.4325	99.9448	100.01	200.046
12.435	99.9449	100.01	200.046
12.4375	99.9451	100.009	200.045
12.44	99.9453	100.009	200.045
12.4425	99.9455	100.009	200.045
12.445	99.9456	100.009	200.045
12.4475	99.9458	100.009	200.045
12.45	99.946	100.009	200.045
12.4525	99.9461	100.009	200.045
12.455	99.9463	100.008	200.045
12.4575	99.9465	100.008	200.045
12.46	99.9466	100.008	200.045
12.4625	99.9468	100.008	200.045
12.465	99.947	100.008	200.045
12.4675	99.9471	100.008	200.045
12.47	99.9473	100.008	200.045
12.4725	99.9475	100.008	200.045
12.475	99.9477	100.007	200.045
12.4775	99.9478	100.007	200.045
12.48	99.948	100.007	200.045
12.4825	99.9482	100.007	200.045
12.485	99.9483	100.007	200.045
12.4875	99.9485	100.007	200.045
12.49	99.9487	100.007	200.045
12.4925	99.9488	100.006	200.045
12.495	99.949	100.006	200.045
12.4975	99.9492	100.006	200.045
12.5	99.9493	100.006	200.045
12.5025	99.9495	100.006	200.045
12.505	99.9497	100.006	200.044
12.5075	99.9498	100.006	200.044
12.51	99.95	100.006	200.044
12.5125	99.9502	100.005	200.044
12.515	99.9503	100.005	200.044
12.5175	99.9505	100.005	200.044
12.52	99.9507	100.005	200.044
12.5225	99.9508	100.005	200.044
12.525	99.951	100.005	200.044
12.5275	99.9512	100.005	200.044
12.53	99.9513	100.005	200.044
12.5325	99.9515	100.004	200.044
12.535	99.9517	100.004	200.044
12.5375	99.9518	100.004	200.044
12.54	99.952	100.004	200.044
12.5425	99.9522	100.004	200.044
12.545	99.9523	100.004	200.044
12.5475	99.9525	100.004	200.044
12.55	99.9526	100.004	200.044
12.5525	99.9528	100.004	200.044
12.555	99.953	100.003	200.044
12.5575	99.9531	100.003	200.044
12.56	99.9533	100.003	200.044
12.5625	99.9535	100.003	200.043
12.565	99.9536	100.003	200.043
12.5675	99.9538	100.003	200.043
12.57	99.954	100.003	200.043
12.5725	99.9541	100.003	200.043
12.575	99.9543	100.002	200.043
12.5775	99.9544	100.002	200.043
12.58	99.9546	100.002	200.043
12.5825	99.9548	100.002	200.043
12.585	99.9549	100.002	200.043
12.5875	99.9551	100.002	200.043
12.59	99.9552	100.002	200.043
12.5925	99.9554	100.002	200.043
12.595	99.9556	100.002	200.043
12.5975	99.9557	100.001	200.043
12.6	99.9559	100.001	200.043
12.6025	99.956	100.001	200.043
12.605	99.9562	100.001	200.043
12.6075	99.9564	100.001	200.043
12.61	99.9565	100.001	200.043
12.6125	99.9567	100.001	200.043
12.615	99.9568	100.001	200.042
12.6175	99.957	100.001	200.042
12.62	99.9572	100	200.042
12.6225	99.9573	100	200.042
12.625	99.9575	100	200.042
12.6275	99.9576	100	200.042
12.63	99.9578	100	200.042
12.6325	99.958	100	200.042
12.635	99.9581	99.9999	200.042
12.6375	99.9583	99.9997	200.042
12.64	99.9584	99.9996	200.042
12.6425	99.9586	99.9995	200.042
12.645	99.9587	99.9994	200.042
12.6475	99.9589	99.9993	200.042
12.65	99.9591	99.9992	200.042
12.6525	99.9592	99.9991	200.042
12.655	99.9594	99.999	200.042
12.6575	99.9595	99.9989	200.042
12.66	99.9597	99.9988	200.041
12.6625	99.9598	99.9987	200.041
12.665	99.96	99.9986	200.041
12.6675	99.9601	99.9985	200.041
12.67	99.9603	99.9984	200.041
12.6725	99.9605	99.9983	200.041
12.675	99.9606	99.9982	200.041
12.6775	99.9608	99.9981	200.041
12.68	99.9609	99.998	200.041
12.6825	99.9611	99.9979	200.041
12.685	99.9612	99.9978	200.041
12.6875	99.9614	99.9977	200.041
12.69	99.9615	99.9976	200.041
12.6925	99.9617	99.9975	200.041
12.695	99.9618	99.9974	200.041
12.6975	99.962	99.9974	200.041
12.7	99.9621	99.9973	200.041
12.7025	99.9623	99.9972	200.041
12.705	99.9624	99.9971	200.04
12.7075	99.9626	99.997	200.04
12.71	99.9628	99.9969	200.04
12.7125	99.9629	99.9968	200.04
12.715	99.9631	99.9967	200.04
12.7175	99.9632	99.9966	200.04
12.72	99.9634	99.9965	200.04
12.7225	99.9635	99.9964	200.04
12.725	99.9637	99.9963	200.04
12.7275	99.9638	99.9962	200.04
12.73	99.964	99.9962	200.04
12.7325	99.9641	99.9961	200.04
12.735	99.9643	99.996	200.04
12.7375	99.9644	99.9959	200.04
12.74	99.9646	99.9958	200.04
12.7425	99.9647	99.9957	200.04
12.745	99.9648	99.9956	200.04
12.7475	99.965	99.9955	200.039
12.75	99.9651	99.9954	200.039
12.7525	99.9653	99.9954	200.039
12.755	99.9654	99.9953	200.039
12.7575	99.9656	99.9952	200.039
12.76	99.9657	99.9951	200.039
12.7625	99.9659	99.995	200.039
12.765	99.966	99.9949	200.039
12.7675	99.9662	99.9948	200.039
12.77	99.9663	99.9948	200.039
12.7725	99.9665	99.9947	200.039
12.775	99.9666	99.9946	200.039
12.7775	99.9668	99.9945	200.039
12.78	99.9669	99.9944	200.039
12.7825	99.967	99.9943	200.039
12.785	99.9672	99.9943	200.039
12.7875	99.9673	99.9942	200.038
12.79	99.9675	99.9941	200.038
12.7925	99.9676	99.994	200.038
12.795	99.9678	99.9939	200.038
12.7975	99.9679	99.9939	200.038
12.8	99.9681	99.9938	200.038
12.8025	99.9682	99.9937	200.038
12.805	99.9683	99.9936	200.038
12.8075	99.9685	99.9935	200.038
12.81	99.9686	99.9935	200.038
12.8125	99.9688	99.9934	200.038
12.815	99.9689	99.9933	200.038
12.8175	99.9691	99.9932	200.038
12.82	99.9692	99.9931	200.038
12.8225	99.9693	99.9931	200.038
12.825	99.9695	99.993	200.038
12.8275	99.9696	99.9929	200.037
12.83	99.9698	99.9928	200.037
12.8325	99.9699	99.9928	200.037
12.835	99.97	99.9927	200.037
12.8375	99.9702	99.9926	200.037
12.84	99.9703	99.9925	200.037
12.8425	99.9705	99.9925	200.037
12.845	99.9706	99.9924	200.037
12.8475	99.9707	99.9923	200.037
12.85	99.9709	99.9922	200.037
12.8525	99.971	99.9922	200.037
12.855	99.9711	99.9921	200.037
12.8575	99.9713	99.992	200.037
12.86	99.9714	99.992	200.037
12.8625	99.9716	99.9919	200.037
12.865	99.9717	99.9918	200.036
12.8675	99.9718	99.9917	200.036
12.87	99.972	99.9917	200.036
12.8725	99.9721	99.9916	200.036
12.875	99.9722	99.9915	200.036
12.8775	99.9724	99.9915	200.036
12.88	99.9725	99.9914	200.036
12.8825	99.9726	99.9913	200.036
12.885	99.9728	99.9913	200.036
12.8875	99.9729	99.9912	200.036
12.89	99.9731	99.9911	200.036
12.8925	99.9732	99.9911	200.036
12.895	99.9733	99.991	200.036
12.8975	99.9735	99.9909	200.036
12.9	99.9736	99.9909	200.036
12.9025	99.9737	99.9908	200.035
12.905	99.9739	99.9907	200.035
12.9075	99.974	99.9907	200.035
12.91	99.9741	99.9906	200.035
12.9125	99.9742	99.9905	200.035
12.915	99.9744	99.9905	200.035
12.9175	99.9745	99.9904	200.035
12.92	99.9746	99.9903	200.035
12.9225	99.9748	99.9903	200.035
12.925	99.9749	99.9902	200.035
12.9275	99.975	99.9902	200.035
12.93	99.9752	99.9901	200.035
12.9325	99.9753	99.99	200.035
12.935	99.9754	99.99	200.035
12.9375	99.9756	99.9899	200.035
12.94	99.9757	99.9898	200.034
12.9425	99.9758	99.9898	200.034
12.945	99.9759	99.9897	200.034
12.9475	99.9761	99.9897	200.034
12.95	99.9762	99.9896	200.034
12.9525	99.9763	99.9895	200.034
12.955	99.9765	99.9895	200.034
12.9575	99.9766	99.9894	200.034
12.96	99.9767	99.9894	200.034
12.9625	99.9768	99.9893	200.034
12.965	99.977	99.9893	200.034
12.9675	99.9771	99.9892	200.034
12.97	99.9772	99.9891	200.034
12.9725	99.9773	99.9891	200.034
12.975	99.9775	99.989	200.034
12.9775	99.9776	99.989	200.033
12.98	99.9777	99.9889	200.033
12.9825	99.9778	99.9889	200.033
12.985	99.978	99.9888	200.033
12.9875	99.9781	99.9887	200.033
12.99	99.9782	99.9887	200.033
12.9925	99.9783	99.9886	200.033
12.995	99.9785	99.9886	200.033
12.9975	99.9786	99.9885	200.033
13	99.9787	99.9885	200.033
13.0025	99.9788	99.9884	200.033
13.005	99.979	99.9884	200.033
13.0075	99.9791	99.9883	200.033
13.01	99.9792	99.9883	200.033
13.0125	99.9793	99.9882	200.032
13.015	99.9794	99.9882	200.032
13.0175	99.9796	99.9881	200.032
13.02	99.9797	99.9881	200.032
13.0225	99.9798	99.988	200.032
13.025	99.9799	99.988	200.032
13.0275	99.9801	99.9879	200.032
13.03	99.9802	99.9879	200.032
13.0325	99.9803	99.9878	200.032
13.035	99.9804	99.9878	200.032
13.0375	99.9805	99.9877	200.032
13.04	99.9806	99.9877	200.032
13.0425	99.9808	99.9876	200.032
13.045	99.9809	99.9876	200.032
13.0475	99.981	99.9875	200.031
13.05	99.9811	99.9875	200.031
13.0525	99.9812	99.9874	200.031
13.055	99.9814	99.9874	200.031
13.0575	99.9815	99.9873	200.031
13.06	99.9816	99.9873	200.031
13.0625	99.9817	99.9872	200.031
13.065	99.9818	99.9872	200.031
13.0675	99.9819	99.9872	200.031
13.07	99.9821	99.9871	200.031
13.0725	99.9822	99.9871	200.031
13.075	99.9823	99.987	200.031
13.0775	99.9824	99.987	200.031
13.08	99.9825	99.9869	200.031
13.0825	99.9826	99.9869	200.03
13.085	99.9827	99.9868	200.03
13.0875	99.9829	99.9868	200.03
13.09	99.983	99.9868	200.03
13.0925	99.9831	99.9867	200.03
13.095	99.9832	99.9867	200.03
13.0975	99.9833	99.9866	200.03
13.1	99.9834	99.9866	200.03
13.1025	99.9835	99.9865	200.03
13.105	99.9836	99.9865	200.03
13.1075	99.9838	99.9865	200.03
13.11	99.9839	99.9864	200.03
13.1125	99.984	99.9864	200.03
13.115	99.9841	99.9863	200.03
13.1175	99.9842	99.9863	200.029
13.12	99.9843	99.9863	200.029
13.1225	99.9844	99.9862	200.029
13.125	99.9845	99.9862	200.029
13.1275	99.9846	99.9861	200.029
13.13	99.9848	99.9861	200.029
13.1325	99.9849	99.9861	200.029
13.135	99.985	99.986	200.029
13.1375	99.9851	99.986	200.029
13.14	99.9852	99.986	200.029
13.1425	99.9853	99.9859	200.029
13.145	99.9854	99.9859	200.029
13.1475	99.9855	99.9859	200.029
13.15	99.9856	99.9858	200.029
13.1525	99.9857	99.9858	200.028
13.155	99.9858	99.9857	200.028
13.1575	99.9859	99.9857	200.028
13.16	99.986	99.9857	200.028
13.1625	99.9862	99.9856	200.028
13.165	99.9863	99.9856	200.028
13.1675	99.9864	99.9856	200.028
13.17	99.9865	99.9855	200.028
13.1725	99.9866	99.9855	200.028
13.175	99.9867	99.9855	200.028
13.1775	99.9868	99.9854	200.028
13.18	99.9869	99.9854	200.028
13.1825	99.987	99.9854	200.028
13.185	99.9871	99.9853	200.028
13.1875	99.9872	99.9853	200.027
13.19	99.9873	99.9853	200.027
13.1925	99.9874	99.9852	200.027
13.195	99.9875	99.9852	200.027
13.1975	99.9876	99.9852	200.027
13.2	99.9877	99.9851	200.027
13.2025	99.9878	99.9851	200.027
13.205	99.9879	99.9851	200.027
13.2075	99.988	99.9851	200.027
13.21	99.9881	99.985	200.027
13.2125	99.9882	99.985	200.027
13.215	99.9883	99.985	200.027
13.2175	99.9884	99.9849	200.027
13.22	99.9885	99.9849	200.027
13.2225	99.9886	99.9849	200.027
13.225	99.9887	99.9849	200.026
13.2275	99.9888	99.9848	200.026
13.23	99.9889	99.9848	200.026
13.2325	99.989	99.9848	200.026
13.235	99.9891	99.9847	200.026
13.2375	99.9892	99.9847	200.026
13.24	99.9893	99.9847	200.026
13.2425	99.9894	99.9847	200.026
13.245	99.9895	99.9846	200.026
13.2475	99.9896	99.9846	200.026
13.25	99.9897	99.9846	200.026
13.2525	99.9898	99.9846	200.026
13.255	99.9899	99.9845	200.026
13.2575	99.99	99.9845	200.026
13.26	99.9901	99.9845	200.025
13.2625	99.9902	99.9845	200.025
13.265	99.9903	99.9844	200.025
13.2675	99.9904	99.9844	200.025
13.27	99.9905	99.9844	200.025
13.2725	99.9905	99.9844	200.025
13.275	99.9906	99.9843	200.025
13.2775	99.9907	99.9843	200.025
13.28	99.9908	99.9843	200.025
13.2825	99.9909	99.9843	200.025
13.285	99.991	99.9842	200.025
13.2875	99.9911	99.9842	200.025
13.29	99.9912	99.9842	200.025
13.2925	99.9913	99.9842	200.025
13.295	99.9914	99.9842	200.024
13.2975	99.9915	99.9841	200.024
13.3	99.9916	99.9841	200.024
13.3025	99.9917	99.9841	200.024
13.305	99.9917	99.9841	200.024
13.3075	99.9918	99.9841	200.024
13.31	99.9919	99.984	200.024
13.3125	99.992	99.984	200.024
13.315	99.9921	99.984	200.024
13.3175	99.9922	99.984	200.024
13.32	99.9923	99.984	200.024
13.3225	99.9924	99.9839	200.024
13.325	99.9925	99.9839	200.024
13.3275	99.9926	99.9839	200.024
13.33	99.9926	99.9839	200.023
13.3325	99.9927	99.9839	200.023
13.335	99.9928	99.9838	200.023
13.3375	99.9929	99.9838	200.023
13.34	99.993	99.9838	200.023
13.3425	99.9931	99.9838	200.023
13.345	99.9932	99.9838	200.023
13.3475	99.9933	99.9838	200.023
13.35	99.9933	99.9837	200.023
13.3525	99.9934	99.9837	200.023
13.355	99.9935	99.9837	200.023
13.3575	99.9936	99.9837	200.023
13.36	99.9937	99.9837	200.023
13.3625	99.9938	99.9837	200.023
13.365	99.9938	99.9836	200.023
13.3675	99.9939	99.9836	200.022
13.37	99.994	99.9836	200.022
13.3725	99.9941	99.9836	200.022
13.375	99.9942	99.9836	200.022
13.3775	99.9943	99.9836	200.022
13.38	99.9944	99.9836	200.022
13.3825	99.9944	99.9835	200.022
13.385	99.9945	99.9835	200.022
13.3875	99.9946	99.9835	200.022
13.39	99.9947	99.9835	200.022
13.3925	99.9948	99.9835	200.022
13.395	99.9948	99.9835	200.022
13.3975	99.9949	99.9835	200.022
13.4	99.995	99.9834	200.022
13.4025	99.9951	99.9834	200.021
13.405	99.9952	99.9834	200.021
13.4075	99.9952	99.9834	200.021
13.41	99.9953	99.9834	200.021
13.4125	99.9954	99.9834	200.021
13.415	99.9955	99.9834	200.021
13.4175	99.9956	99.9834	200.021
13.42	99.9956	99.9834	200.021
13.4225	99.9957	99.9833	200.021
13.425	99.9958	99.9833	200.021
13.4275	99.9959	99.9833	200.021
13.43	99.996	99.9833	200.021
13.4325	99.996	99.9833	200.021
13.435	99.9961	99.9833	200.021
13.4375	99.9962	99.9833	200.021
13.44	99.9963	99.9833	200.02
13.4425	99.9963	99.9833	200.02
13.445	99.9964	99.9833	200.02
13.4475	99.9965	99.9832	200.02
13.45	99.9966	99.9832	200.02
13.4525	99.9966	99.9832	200.02
13.455	99.9967	99.9832	200.02
13.4575	99.9968	99.9832	200.02
13.46	99.9969	99.9832	200.02
13.4625	99.9969	99.9832	200.02
13.465	99.997	99.9832	200.02
13.4675	99.9971	99.9832	200.02
13.47	99.9972	99.9832	200.02
13.4725	99.9972	99.9832	200.02
13.475	99.9973	99.9832	200.02
13.4775	99.9974	99.9832	200.019
13.48	99.9975	99.9831	200.019
13.4825	99.9975	99.9831	200.019
13.485	99.9976	99.9831	200.019
13.4875	99.9977	99.9831	200.019
13.49	99.9978	99.9831	200.019
13.4925	99.9978	99.9831	200.019
13.495	99.9979	99.9831	200.019
13.4975	99.998	99.9831	200.019
13.5	99.998	99.9831	200.019
13.5025	99.9981	99.9831	200.019
13.505	99.9982	99.9831	200.019
13.5075	99.9982	99.9831	200.019
13.51	99.9983	99.9831	200.019
13.5125	99.9984	99.9831	200.019
13.515	99.9985	99.9831	200.018
13.5175	99.9985	99.9831	200.018
13.52	99.9986	99.9831	200.018
13.5225	99.9987	99.9831	200.018
13.525	99.9987	99.9831	200.018
13.5275	99.9988	99.9831	200.018
13.53	99.9989	99.9831	200.018
13.5325	99.9989	99.9831	200.018
13.535	99.999	99.9831	200.018
13.5375	99.9991	99.983	200.018
13.54	99.9991	99.983	200.018
13.5425	99.9992	99.983	200.018
13.545	99.9993	99.983	200.018
13.5475	99.9993	99.983	200.018
13.55	99.9994	99.983	200.018
13.5525	99.9995	99.983	200.017
13.555	99.9995	99.983	200.017
13.5575	99.9996	99.983	200.017
13.56	99.9997	99.983	200.017
13.5625	99.9997	99.983	200.017
13.565	99.9998	99.983	200.017
13.5675	99.9999	99.983	200.017
13.57	99.9999	99.983	200.017
13.5725	100	99.983	200.017
13.575	100	99.983	200.017
13.5775	100	99.983	200.017
13.58	100	99.983	200.017
13.5825	100	99.983	200.017
13.585	100	99.983	200.017
13.5875	100	99.983	200.017
13.59	100	99.983	200.017
13.5925	100	99.983	200.016
13.595	100.001	99.983	200.016
13.5975	100.001	99.983	200.016
13.6	100.001	99.983	200.016
13.6025	100.001	99.983	200.016
13.605	100.001	99.983	200.016
13.6075	100.001	99.983	200.016
13.61	100.001	99.983	200.016
13.6125	100.001	99.9831	200.016
13.615	100.001	99.9831	200.016
13.6175	100.001	99.9831	200.016
13.62	100.001	99.9831	200.016
13.6225	100.001	99.9831	200.016
13.625	100.001	99.9831	200.016
13.6275	100.001	99.9831	200.016
13.63	100.001	99.9831	200.016
13.6325	100.001	99.9831	200.015
13.635	100.002	99.9831	200.015
13.6375	100.002	99.9831	200.015
13.64	100.002	99.9831	200.015
13.6425	100.002	99.9831	200.015
13.645	100.002	99.9831	200.015
13.6475	100.002	99.9831	200.015
13.65	100.002	99.9831	200.015
13.6525	100.002	99.9831	200.015
13.655	100.002	99.9831	200.015
13.6575	100.002	99.9831	200.015
13.66	100.002	99.9831	200.015
13.6625	100.002	99.9831	200.015
13.665	100.002	99.9831	200.015
13.6675	100.002	99.9831	200.015
13.67	100.002	99.9831	200.015
13.6725	100.002	99.9832	200.015
13.675	100.002	99.9832	200.014
13.6775	100.002	99.9832	200.014
13.68	100.003	99.9832	200.014
13.6825	100.003	99.9832	200.014
13.685	100.003	99.9832	200.014
13.6875	100.003	99.9832	200.014
13.69	100.003	99.9832	200.014
13.6925	100.003	99.9832	200.014
13.695	100.003	99.9832	200.014
13.6975	100.003	99.9832	200.014
13.7	100.003	99.9832	200.014
13.7025	100.003	99.9832	200.014
13.705	100.003	99.9832	200.014
13.7075	100.003	99.9832	200.014
13.71	100.003	99.9833	200.014
13.7125	100.003	99.9833	200.014
13.715	100.003	99.9833	200.013
13.7175	100.003	99.9833	200.013
13.72	100.003	99.9833	200.013
13.7225	100.003	99.9833	200.013
13.725	100.003	99.9833	200.013
13.7275	100.003	99.9833	200.013
13.73	100.004	99.9833	200.013
13.7325	100.004	99.9833	200.013
13.735	100.004	99.9833	200.013
13.7375	100.004	99.9833	200.013
13.74	100.004	99.9834	200.013
13.7425	100.004	99.9834	200.013
13.745	100.004	99.9834	200.013
13.7475	100.004	99.9834	200.013
13.75	100.004	99.9834	200.013
13.7525	100.004	99.9834	200.013
13.755	100.004	99.9834	200.013
13.7575	100.004	99.9834	200.013
13.76	100.004	99.9834	200.012
13.7625	100.004	99.9834	200.012
13.765	100.004	99.9835	200.012
13.7675	100.004	99.9835	200.012
13.77	100.004	99.9835	200.012
13.7725	100.004	99.9835	200.012
13.775	100.004	99.9835	200.012
13.7775	100.004	99.9835	200.012
13.78	100.004	99.9835	200.012
13.7825	100.005	99.9835	200.012
13.785	100.005	99.9835	200.012
13.7875	100.005	99.9836	200.012
13.79	100.005	99.9836	200.012
13.7925	100.005	99.9836	200.012
13.795	100.005	99.9836	200.012
13.7975	100.005	99.9836	200.012
13.8	100.005	99.9836	200.012
13.8025	100.005	99.9836	200.011
13.805	100.005	99.9836	200.011
13.8075	100.005	99.9837	200.011
13.81	100.005	99.9837	200.011
13.8125	100.005	99.9837	200.011
13.815	100.005	99.9837	200.011
13.8175	100.005	99.9837	200.011
13.82	100.005	99.9837	200.011
13.8225	100.005	99.9837	200.011
13.825	100.005	99.9837	200.011
13.8275	100.005	99.9838	200.011
13.83	100.005	99.9838	200.011
13.8325	100.005	99.9838	200.011
13.835	100.005	99.9838	200.011
13.8375	100.005	99.9838	200.011
13.84	100.005	99.9838	200.011
13.8425	100.006	99.9838	200.011
13.845	100.006	99.9839	200.011
13.8475	100.006	99.9839	200.011
13.85	100.006	99.9839	200.01
13.8525	100.006	99.9839	200.01
13.855	100.006	99.9839	200.01
13.8575	100.006	99.9839	200.01
13.86	100.006	99.9839	200.01
13.8625	100.006	99.984	200.01
13.865	100.006	99.984	200.01
13.8675	100.006	99.984	200.01
13.87	100.006	99.984	200.01
13.8725	100.006	99.984	200.01
13.875	100.006	99.984	200.01
13.8775	100.006	99.984	200.01
13.88	100.006	99.9841	200.01
13.8825	100.006	99.9841	200.01
13.885	100.006	99.9841	200.01
13.8875	100.006	99.9841	200.01
13.89	100.006	99.9841	200.01
13.8925	100.006	99.9841	200.01
13.895	100.006	99.9841	200.01
13.8975	100.006	99.9842	200.009
13.9	100.006	99.9842	200.009
13.9025	100.006	99.9842	200.009
13.905	100.006	99.9842	200.009
13.9075	100.007	99.9842	200.009
13.91	100.007	99.9842	200.009
13.9125	100.007	99.9843	200.009
13.915	100.007	99.9843	200.009
13.9175	100.007	99.9843	200.009
13.92	100.007	99.9843	200.009
13.9225	100.007	99.9843	200.009
13.925	100.007	99.9843	200.009
13.9275	100.007	99.9844	200.009
13.93	100.007	99.9844	200.009
13.9325	100.007	99.9844	200.009
13.935	100.007	99.9844	200.009
13.9375	100.007	99.9844	200.009
13.94	100.007	99.9844	200.009
13.9425	100.007	99.9845	200.009
13.945	100.007	99.9845	200.009
13.9475	100.007	99.9845	200.008
13.95	100.007	99.9845	200.008
13.9525	100.007	99.9845	200.008
13.955	100.007	99.9846	200.008
13.9575	100.007	99.9846	200.008
13.96	100.007	99.9846	200.008
13.9625	100.007	99.9846	200.008
13.965	100.007	99.9846	200.008
13.9675	100.007	99.9846	200.008
13.97	100.007	99.9847	200.008
13.9725	100.007	99.9847	200.008
13.975	100.007	99.9847	200.008
13.9775	100.007	99.9847	200.008
13.98	100.007	99.9847	200.008
13.9825	100.007	99.9848	200.008
13.985	100.007	99.9848	200.008
13.9875	100.008	99.9848	200.008
13.99	100.008	99.9848	200.008
13.9925	100.008	99.9848	200.008
13.995	100.008	99.9848	200.008
13.9975	100.008	99.9849	200.007
14	100.008	99.9849	200.007
14.0025	100.008	99.9849	200.007
14.005	100.008	99.9849	200.007
14.0075	100.008	99.9849	200.007
14.01	100.008	99.985	200.007
14.0125	100.008	99.985	200.007
14.015	100.008	99.985	200.007
14.0175	100.008	99.985	200.007
14.02	100.008	99.985	200.007
14.0225	100.008	99.9851	200.007
14.025	100.008	99.9851	200.007
14.0275	100.008	99.9851	200.007
14.03	100.008	99.9851	200.007
14.0325	100.008	99.9851	200.007
14.035	100.008	99.9852	200.007
14.0375	100.008	99.9852	200.007
14.04	100.008	99.9852	200.007
14.0425	100.008	99.9852	200.007
14.045	100.008	99.9852	200.007
14.0475	100.008	99.9853	200.007
14.05	100.008	99.9853	200.007
14.0525	100.008	99.9853	200.006
14.055	100.008	99.9853	200.006
14.0575	100.008	99.9853	200.006
14.06	100.008	99.9854	200.006
14.0625	100.008	99.9854	200.006
14.065	100.008	99.9854	200.006
14.0675	100.008	99.9854	200.006
14.07	100.008	99.9854	200.006
14.0725	100.008	99.9855	200.006
14.075	100.008	99.9855	200.006
14.0775	100.008	99.9855	200.006
14.08	100.008	99.9855	200.006
14.0825	100.008	99.9856	200.006
14.085	100.009	99.9856	200.006
14.0875	100.009	99.9856	200.006
14.09	100.009	99.9856	200.006
14.0925	100.009	99.9856	200.006
14.095	100.009	99.9857	200.006
14.0975	100.009	99.9857	200.006
14.1	100.009	99.9857	200.006
14.1025	100.009	99.9857	200.006
14.105	100.009	99.9857	200.006
14.1075	100.009	99.9858	200.006
14.11	100.009	99.9858	200.005
14.1125	100.009	99.9858	200.005
14.115	100.009	99.9858	200.005
14.1175	100.009	99.9859	200.005
14.12	100.009	99.9859	200.005
14.1225	100.009	99.9859	200.005
14.125	100.009	99.9859	200.005
14.1275	100.009	99.9859	200.005
14.13	100.009	99.986	200.005
14.1325	100.009	99.986	200.005
14.135	100.009	99.986	200.005
14.1375	100.009	99.986	200.005
14.14	100.009	99.9861	200.005
14.1425	100.009	99.9861	200.005
14.145	100.009	99.9861	200.005
14.1475	100.009	99.9861	200.005
14.15	100.009	99.9861	200.005
14.1525	100.009	99.9862	200.005
14.155	100.009	99.9862	200.005
14.1575	100.009	99.9862	200.005
14.16	100.009	99.9862	200.005
14.1625	100.009	99.9863	200.005
14.165	100.009	99.9863	200.005
14.1675	100.009	99.9863	200.005
14.17	100.009	99.9863	200.004
14.1725	100.009	99.9864	200.004
14.175	100.009	99.9864	200.004
14.1775	100.009	99.9864	200.004
14.18	100.009	99.9864	200.004
14.1825	100.009	99.9864	200.004
14.185	100.009	99.9865	200.004
14.1875	100.009	99.9865	200.004
14.19	100.009	99.9865	200.004
14.1925	100.009	99.9865	200.004
14.195	100.009	99.9866	200.004
14.1975	100.009	99.9866	200.004
14.2	100.009	99.9866	200.004
14.2025	100.009	99.9866	200.004
14.205	100.009	99.9867	200.004
14.2075	100.009	99.9867	200.004
14.21	100.009	99.9867	200.004
14.2125	100.009	99.9867	200.004
14.215	100.009	99.9867	200.004
14.2175	100.009	99.9868	200.004
14.22	100.009	99.9868	200.004
14.2225	100.009	99.9868	200.004
14.225	100.01	99.9868	200.004
14.2275	100.01	99.9869	200.004
14.23	100.01	99.9869	200.004
14.2325	100.01	99.9869	200.004
14.235	100.01	99.9869	200.003
14.2375	100.01	99.987	200.003
14.24	100.01	99.987	200.003
14.2425	100.01	99.987	200.003
14.245	100.01	99.987	200.003
14.2475	100.01	99.9871	200.003
14.25	100.01	99.9871	200.003
14.2525	100.01	99.9871	200.003
14.255	100.01	99.9871	200.003
14.2575	100.01	99.9872	200.003
14.26	100.01	99.9872	200.003
14.2625	100.01	99.9872	200.003
14.265	100.01	99.9872	200.003
14.2675	100.01	99.9873	200.003
14.27	100.01	99.9873	200.003
14.2725	100.01	99.9873	200.003
14.275	100.01	99.9873	200.003
14.2775	100.01	99.9873	200.003
14.28	100.01	99.9874	200.003
14.2825	100.01	99.9874	200.003
14.285	100.01	99.9874	200.003
14.2875	100.01	99.9874	200.003
14.29	100.01	99.9875	200.003
14.2925	100.01	99.9875	200.003
14.295	100.01	99.9875	200.003
14.2975	100.01	99.9875	200.003
14.3	100.01	99.9876	200.003
14.3025	100.01	99.9876	200.003
14.305	100.01	99.9876	200.003
14.3075	100.01	99.9876	200.002
14.31	100.01	99.9877	200.002
14.3125	100.01	99.9877	200.002
14.315	100.01	99.9877	200.002
14.3175	100.01	99.9877	200.002
14.32	100.01	99.9878	200.002
14.3225	100.01	99.9878	200.002
14.325	100.01	99.9878	200.002
14.3275	100.01	99.9878	200.002
14.33	100.01	99.9879	200.002
14.3325	100.01	99.9879	200.002
14.335	100.01	99.9879	200.002
14.3375	100.01	99.9879	200.002
14.34	100.01	99.988	200.002
14.3425	100.01	99.988	200.002
14.345	100.01	99.988	200.002
14.3475	100.01	99.988	200.002
14.35	100.01	99.9881	200.002
14.3525	100.01	99.9881	200.002
14.355	100.01	99.9881	200.002
14.3575	100.01	99.9881	200.002
14.36	100.01	99.9882	200.002
14.3625	100.01	99.9882	200.002
14.365	100.01	99.9882	200.002
14.3675	100.01	99.9882	200.002
14.37	100.01	99.9883	200.002
14.3725	100.01	99.9883	200.002
14.375	100.01	99.9883	200.002
14.3775	100.01	99.9883	200.002
14.38	100.01	99.9884	200.002
14.3825	100.01	99.9884	200.001
14.385	100.01	99.9884	200.001
14.3875	100.01	99.9884	200.001
14.39	100.01	99.9885	200.001
14.3925	100.01	99.9885	200.001
14.395	100.01	99.9885	200.001
14.3975	100.01	99.9885	200.001
14.4	100.01	99.9886	200.001
14.4025	100.01	99.9886	200.001
14.405	100.01	99.9886	200.001
14.4075	100.01	99.9886	200.001
14.41	100.01	99.9887	200.001
14.4125	100.01	99.9887	200.001
14.415	100.01	99.9887	200.001
14.4175	100.01	99.9887	200.001
14.42	100.01	99.9888	200.001
14.4225	100.01	99.9888	200.001
14.425	100.01	99.9888	200.001
14.4275	100.01	99.9889	200.001
14.43	100.01	99.9889	200.001
14.4325	100.01	99.9889	200.001
14.435	100.01	99.9889	200.001
14.4375	100.01	99.989	200.001
14.44	100.01	99.989	200.001
14.4425	100.01	99.989	200.001
14.445	100.01	99.989	200.001
14.4475	100.01	99.9891	200.001
14.45	100.01	99.9891	200.001
14.4525	100.01	99.9891	200.001
14.455	100.01	99.9891	200.001
14.4575	100.01	99.9892	200.001
14.46	100.01	99.9892	200.001
14.4625	100.01	99.9892	200.001
14.465	100.01	99.9892	200.001
14.4675	100.01	99.9893	200.001
14.47	100.01	99.9893	200
14.4725	100.01	99.9893	200
14.475	100.01	99.9893	200
14.4775	100.01	99.9894	200
14.48	100.01	99.9894	200
14.4825	100.01	99.9894	200
14.485	100.01	99.9894	200
14.4875	100.01	99.9895	200
14.49	100.01	99.9895	200
14.4925	100.01	99.9895	200
14.495	100.01	99.9895	200
14.4975	100.01	99.9896	200
14.5	100.01	99.9896	200
14.5025	100.01	99.9896	200
14.505	100.01	99.9896	200
14.5075	100.01	99.9897	200
14.51	100.01	99.9897	200
14.5125	100.01	99.9897	200
14.515	100.01	99.9897	200
14.5175	100.01	99.9898	200
14.52	100.01	99.9898	200
14.5225	100.01	99.9898	200
14.525	100.01	99.9898	200
14.5275	100.01	99.9899	200
14.53	100.01	99.9899	200
14.5325	100.01	99.9899	200
14.535	100.01	99.99	200
14.5375	100.01	99.99	200
14.54	100.01	99.99	200
14.5425	100.01	99.99	200
14.545	100.01	99.9901	200
14.5475	100.01	99.9901	200
14.55	100.01	99.9901	200
14.5525	100.01	99.9901	200
14.555	100.01	99.9902	200
14.5575	100.01	99.9902	200
14.56	100.01	99.9902	200
14.5625	100.01	99.9902	200
14.565	100.01	99.9903	200
14.5675	100.01	99.9903	199.999
14.57	100.01	99.9903	199.999
14.5725	100.01	99.9903	199.999
14.575	100.01	99.9904	199.999
14.5775	100.01	99.9904	199.999
14.58	100.01	99.9904	199.999
14.5825	100.01	99.9904	199.999
14.585	100.01	99.9905	199.999
14.5875	100.01	99.9905	199.999
14.59	100.01	99.9905	199.999
14.5925	100.01	99.9905	199.999
14.595	100.01	99.9906	199.999
14.5975	100.01	99.9906	199.999
14.6	100.01	99.9906	199.999
14.6025	100.01	99.9906	199.999
14.605	100.01	99.9907	199.999
14.6075	100.01	99.9907	199.999
14.61	100.01	99.9907	199.999
14.6125	100.01	99.9907	199.999
14.615	100.01	99.9908	199.999
14.6175	100.01	99.9908	199.999
14.62	100.01	99.9908	199.999
14.6225	100.01	99.9908	199.999
14.625	100.01	99.9909	199.999
14.6275	100.01	99.9909	199.999
14.63	100.01	99.9909	199.999
14.6325	100.01	99.9909	199.999
14.635	100.01	99.991	199.999
14.6375	100.01	99.991	199.999
14.64	100.01	99.991	199.999
14.6425	100.01	99.991	199.999
14.645	100.01	99.9911	199.999
14.6475	100.01	99.9911	199.999
14.65	100.01	99.9911	199.999
14.6525	100.01	99.9912	199.999
14.655	100.01	99.9912	199.999
14.6575	100.01	99.9912	199.999
14.66	100.01	99.9912	199.999
14.6625	100.01	99.9913	199.999
14.665	100.01	99.9913	199.999
14.6675	100.01	99.9913	199.999
14.67	100.01	99.9913	199.999
14.6725	100.01	99.9914	199.999
14.675	100.01	99.9914	199.999
14.6775	100.01	99.9914	199.999
14.68	100.01	99.9914	199.999
14.6825	100.01	99.9915	199.998
14.685	100.01	99.9915	199.998
14.6875	100.01	99.9915	199.998
14.69	100.01	99.9915	199.998
14.6925	100.01	99.9916	199.998
14.695	100.01	99.9916	199.998
14.6975	100.01	99.9916	199.998
14.7	100.01	99.9916	199.998
14.7025	100.01	99.9917	199.998
14.705	100.01	99.9917	199.998
14.7075	100.01	99.9917	199.998
14.71	100.01	99.9917	199.998
14.7125	100.01	99.9918	199.998
14.715	100.01	99.9918	199.998
14.7175	100.01	99.9918	199.998
14.72	100.01	99.9918	199.998
14.7225	100.01	99.9919	199.998
14.725	100.01	99.9919	199.998
14.7275	100.01	99.9919	199.998
14.73	100.01	99.9919	199.998
14.7325	100.01	99.992	199.998
14.735	100.01	99.992	199.998
14.7375	100.01	99.992	199.998
14.74	100.01	99.992	199.998
14.7425	100.01	99.9921	199.998
14.745	100.01	99.9921	199.998
14.7475	100.01	99.9921	199.998
14.75	100.01	99.9921	199.998
14.7525	100.01	99.9922	199.998
14.755	100.01	99.9922	199.998
14.7575	100.01	99.9922	199.998
14.76	100.01	99.9922	199.998
14.7625	100.01	99.9922	199.998
14.765	100.01	99.9923	199.998
14.7675	100.01	99.9923	199.998
14.77	100.01	99.9923	199.998
14.7725	100.01	99.9923	199.998
14.775	100.01	99.9924	199.998
14.7775	100.01	99.9924	199.998
14.78	100.01	99.9924	199.998
14.7825	100.01	99.9924	199.998
14.785	100.01	99.9925	199.998
14.7875	100.01	99.9925	199.998
14.79	100.01	99.9925	199.998
14.7925	100.01	99.9925	199.998
14.795	100.01	99.9926	199.998
14.7975	100.01	99.9926	199.998
14.8	100.01	99.9926	199.998
14.8025	100.01	99.9926	199.998
14.805	100.01	99.9927	199.998
14.8075	100.01	99.9927	199.998
14.81	100.01	99.9927	199.998
14.8125	100.01	99.9927	199.998
14.815	100.01	99.9928	199.998
14.8175	100.01	99.9928	199.998
14.82	100.01	99.9928	199.998
14.8225	100.01	99.9928	199.998
14.825	100.01	99.9929	199.998
14.8275	100.01	99.9929	199.998
14.83	100.01	99.9929	199.997
14.8325	100.01	99.9929	199.997
14.835	100.01	99.993	199.997
14.8375	100.01	99.993	199.997
14.84	100.01	99.993	199.997
14.8425	100.01	99.993	199.997
14.845	100.01	99.993	199.997
14.8475	100.01	99.9931	199.997
14.85	100.01	99.9931	199.997
14.8525	100.01	99.9931	199.997
14.855	100.01	99.9931	199.997
14.8575	100.01	99.9932	199.997
14.86	100.009	99.9932	199.997
14.8625	100.009	99.9932	199.997
14.865	100.009	99.9932	199.997
14.8675	100.009	99.9933	199.997
14.87	100.009	99.9933	199.997
14.8725	100.009	99.9933	199.997
14.875	100.009	99.9933	199.997
14.8775	100.009	99.9934	199.997
14.88	100.009	99.9934	199.997
14.8825	100.009	99.9934	199.997
14.885	100.009	99.9934	199.997
14.8875	100.009	99.9935	199.997
14.89	100.009	99.9935	199.997
14.8925	100.009	99.9935	199.997
14.895	100.009	99.9935	199.997
14.8975	100.009	99.9935	199.997
14.9	100.009	99.9936	199.997
14.9025	100.009	99.9936	199.997
14.905	100.009	99.9936	199.997
14.9075	100.009	99.9936	199.997
14.91	100.009	99.9937	199.997
14.9125	100.009	99.9937	199.997
14.915	100.009	99.9937	199.997
14.9175	100.009	99.9937	199.997
14.92	100.009	99.9938	199.997
14.9225	100.009	99.9938	199.997
14.925	100.009	99.9938	199.997
14.9275	100.009	99.9938	199.997
14.93	100.009	99.9938	199.997
14.9325	100.009	99.9939	199.997
14.935	100.009	99.9939	199.997
14.9375	100.009	99.9939	199.997
14.94	100.009	99.9939	199.997
14.9425	100.009	99.994	199.997
14.945	100.009	99.994	199.997
14.9475	100.009	99.994	199.997
14.95	100.009	99.994	199.997
14.9525	100.009	99.9941	199.997
14.955	100.009	99.9941	199.997
14.9575	100.009	99.9941	199.997
14.96	100.009	99.9941	199.997
14.9625	100.009	99.9941	199.997
14.965	100.009	99.9942	199.997
14.9675	100.009	99.9942	199.997
14.97	100.009	99.9942	199.997
14.9725	100.009	99.9942	199.997
14.975	100.009	99.9943	199.997
14.9775	100.009	99.9943	199.997
14.98	100.009	99.9943	199.997
14.9825	100.009	99.9943	199.997
14.985	100.009	99.9943	199.997
14.9875	100.009	99.9944	199.997
14.99	100.009	99.9944	199.997
14.9925	100.009	99.9944	199.997
14.995	100.009	99.9944	199.997
14.9975	100.009	99.9945	199.997
15	100.009	99.9945	199.997
