# N = 400
# (S0, I0, R0) = (293.75, 5, 101.25)
# (a, b, c) = (4, 1, 0.5)
# time, S, I, R
0	293.75	5	101.25
0.0025	293.84	5.02428	101.136
0.005	293.929	5.0487	101.022
0.0075	294.018	5.07324	100.909
0.01	294.107	5.09791	100.795
0.0125	294.195	5.12271	100.682
0.015	294.283	5.14765	100.569
0.0175	294.371	5.17272	100.457
0.02	294.458	5.19792	100.344
0.0225	294.545	5.22326	100.232
0.025	294.632	5.24873	100.12
0.0275	294.718	5.27434	100.008
0.03	294.804	5.30008	99.8959
0.0325	294.89	5.32596	99.7844
0.035	294.975	5.35198	99.6731
0.0375	295.06	5.37814	99.562
0.04	295.145	5.40443	99.4511
0.0425	295.229	5.43087	99.3403
0.045	295.313	5.45745	99.2299
0.0475	295.396	5.48416	99.1196
0.05	295.479	5.51102	99.0095
0.0525	295.562	5.53803	98.8996
0.055	295.645	5.56518	98.7899
0.0575	295.727	5.59247	98.6804
0.06	295.809	5.61991	98.5712
0.0625	295.89	5.64749	98.4621
0.065	295.972	5.67522	98.3533
0.0675	296.052	5.7031	98.2446
0.07	296.133	5.73113	98.1362
0.0725	296.213	5.7593	98.0279
0.075	296.292	5.78763	97.9199
0.0775	296.372	5.81611	97.8121
0.08	296.451	5.84473	97.7044
0.0825	296.529	5.87352	97.597
0.085	296.608	5.90245	97.4898
0.0875	296.686	5.93154	97.3828
0.09	296.763	5.96078	97.276
0.0925	296.84	5.99018	97.1694
0.095	296.917	6.01974	97.063
0.0975	296.994	6.04945	96.9569
0.1	297.07	6.07932	96.8509
0.1025	297.146	6.10935	96.7451
0.105	297.221	6.13954	96.6396
0.1075	297.296	6.1699	96.5342
0.11	297.37	6.20041	96.4291
0.1125	297.445	6.23109	96.3242
0.115	297.519	6.26192	96.2194
0.1175	297.592	6.29293	96.1149
0.12	297.665	6.3241	96.0106
0.1225	297.738	6.35543	95.9065
0.125	297.81	6.38693	95.8026
0.1275	297.882	6.4186	95.6989
0.13	297.954	6.45044	95.5955
0.1325	298.025	6.48245	95.4922
0.135	298.096	6.51462	95.3892
0.1375	298.167	6.54697	95.2863
0.14	298.237	6.57949	95.1837
0.1425	298.307	6.61219	95.0813
0.145	298.376	6.64505	94.979
0.1475	298.445	6.6781	94.877
0.15	298.513	6.71132	94.7752
0.1525	298.582	6.74471	94.6736
0.155	298.649	6.77828	94.5723
0.1575	298.717	6.81204	94.4711
0.16	298.784	6.84597	94.3702
0.1625	298.851	6.88008	94.2694
0.165	298.917	6.91437	94.1689
0.1675	298.983	6.94885	94.0686
0.17	299.048	6.98351	93.9685
0.1725	299.113	7.01835	93.8686
0.175	299.178	7.05338	93.7689
0.1775	299.242	7.0886	93.6694
0.18	299.306	7.124	93.5701
0.1825	299.369	7.15959	93.4711
0.185	299.432	7.19537	93.3723
0.1875	299.495	7.23134	93.2736
0.19	299.557	7.2675	93.1752
0.1925	299.619	7.30385	93.077
0.195	299.681	7.3404	92.9791
0.1975	299.742	7.37714	92.8813
0.2	299.802	7.41407	92.7837
0.2025	299.862	7.45121	92.6864
0.205	299.922	7.48854	92.5893
0.2075	299.982	7.52606	92.4924
0.21	300.041	7.56379	92.3957
0.2125	300.099	7.60172	92.2992
0.215	300.157	7.63984	92.2029
0.2175	300.215	7.67817	92.1069
0.22	300.272	7.71671	92.0111
0.2225	300.329	7.75545	91.9155
0.225	300.386	7.79439	91.8201
0.2275	300.442	7.83354	91.7249
0.23	300.497	7.8729	91.6299
0.2325	300.552	7.91247	91.5352
0.235	300.607	7.95224	91.4406
0.2375	300.661	7.99223	91.3463
0.24	300.715	8.03243	91.2522
0.2425	300.769	8.07284	91.1584
0.245	300.822	8.11347	91.0647
0.2475	300.874	8.15431	90.9713
0.25	300.927	8.19537	90.878
0.2525	300.978	8.23664	90.785
0.255	301.03	8.27814	90.6923
0.2575	301.08	8.31985	90.5997
0.26	301.131	8.36178	90.5074
0.2625	301.181	8.40394	90.4152
0.265	301.23	8.44632	90.3233
0.2675	301.279	8.48892	90.2317
0.27	301.328	8.53175	90.1402
0.2725	301.376	8.57481	90.049
0.275	301.424	8.61809	89.958
0.2775	301.471	8.6616	89.8672
0.28	301.518	8.70534	89.7766
0.2825	301.564	8.74932	89.6863
0.285	301.61	8.79352	89.5961
0.2875	301.656	8.83796	89.5062
0.29	301.701	8.88263	89.4166
0.2925	301.745	8.92754	89.3271
0.295	301.789	8.97269	89.2379
0.2975	301.833	9.01807	89.1489
0.3	301.876	9.06369	89.0601
0.3025	301.919	9.10956	88.9715
0.305	301.961	9.15566	88.8832
0.3075	302.003	9.20201	88.7951
0.31	302.044	9.24861	88.7072
0.3125	302.085	9.29544	88.6196
0.315	302.125	9.34253	88.5322
0.3175	302.165	9.38986	88.445
0.32	302.205	9.43744	88.358
0.3225	302.243	9.48528	88.2713
0.325	302.282	9.53336	88.1848
0.3275	302.32	9.5817	88.0985
0.33	302.357	9.63029	88.0124
0.3325	302.394	9.67914	87.9266
0.335	302.431	9.72824	87.841
0.3375	302.467	9.7776	87.7556
0.34	302.502	9.82722	87.6705
0.3425	302.537	9.8771	87.5856
0.345	302.572	9.92725	87.5009
0.3475	302.606	9.97765	87.4165
0.35	302.639	10.0283	87.3323
0.3525	302.672	10.0793	87.2483
0.355	302.705	10.1305	87.1645
0.3575	302.737	10.1819	87.081
0.36	302.769	10.2337	86.9977
0.3625	302.8	10.2857	86.9147
0.365	302.83	10.338	86.8319
0.3675	302.86	10.3905	86.7493
0.37	302.89	10.4434	86.667
0.3725	302.919	10.4965	86.5849
0.375	302.947	10.5499	86.503
0.3775	302.975	10.6035	86.4213
0.38	303.003	10.6575	86.3399
0.3825	303.03	10.7117	86.2588
0.385	303.056	10.7662	86.1779
0.3875	303.082	10.821	86.0972
0.39	303.107	10.8761	86.0167
0.3925	303.132	10.9315	85.9365
0.395	303.156	10.9871	85.8565
0.3975	303.18	11.0431	85.7768
0.4	303.203	11.0993	85.6973
0.4025	303.226	11.1558	85.6181
0.405	303.248	11.2127	85.539
0.4075	303.27	11.2698	85.4603
0.41	303.291	11.3272	85.3817
0.4125	303.312	11.3849	85.3035
0.415	303.332	11.4429	85.2254
0.4175	303.351	11.5013	85.1476
0.42	303.37	11.5599	85.07
0.4225	303.388	11.6188	84.9927
0.425	303.406	11.678	84.9157
0.4275	303.424	11.7376	84.8388
0.43	303.44	11.7974	84.7623
0.4325	303.457	11.8576	84.6859
0.435	303.472	11.918	84.6098
0.4375	303.487	11.9788	84.534
0.44	303.502	12.0399	84.4584
0.4425	303.516	12.1013	84.383
0.445	303.529	12.1631	84.3079
0.4475	303.542	12.2251	84.2331
0.45	303.554	12.2875	84.1585
0.4525	303.566	12.3502	84.0841
0.455	303.577	12.4132	84.01
0.4575	303.587	12.4765	83.9362
0.46	303.597	12.5402	83.8626
0.4625	303.607	12.6042	83.7892
0.465	303.615	12.6685	83.7161
0.4675	303.624	12.7331	83.6433
0.47	303.631	12.7981	83.5707
0.4725	303.638	12.8635	83.4983
0.475	303.645	12.9291	83.4262
0.4775	303.65	12.9951	83.3544
0.48	303.656	13.0614	83.2828
0.4825	303.66	13.1281	83.2115
0.485	303.664	13.1951	83.1404
0.4875	303.668	13.2625	83.0696
0.49	303.671	13.3302	82.9991
0.4925	303.673	13.3982	82.9288
0.495	303.675	13.4666	82.8587
0.4975	303.676	13.5354	82.789
0.5	303.676	13.6045	82.7194
0.5025	303.676	13.6739	82.6502
0.505	303.675	13.7437	82.5812
0.5075	303.674	13.8139	82.5125
0.51	303.672	13.8844	82.444
0.5125	303.669	13.9553	82.3758
0.515	303.666	14.0265	82.3078
0.5175	303.662	14.0981	82.2401
0.52	303.657	14.1701	82.1727
0.5225	303.652	14.2424	82.1055
0.525	303.646	14.3151	82.0387
0.5275	303.64	14.3881	81.972
0.53	303.633	14.4616	81.9057
0.5325	303.625	14.5354	81.8396
0.535	303.617	14.6096	81.7737
0.5375	303.608	14.6841	81.7082
0.54	303.598	14.7591	81.6429
0.5425	303.588	14.8344	81.5779
0.545	303.577	14.9101	81.5131
0.5475	303.565	14.9861	81.4486
0.55	303.553	15.0626	81.3844
0.5525	303.54	15.1394	81.3205
0.555	303.526	15.2167	81.2568
0.5575	303.512	15.2943	81.1934
0.56	303.497	15.3723	81.1303
0.5625	303.482	15.4507	81.0675
0.565	303.466	15.5295	81.0049
0.5675	303.449	15.6087	80.9426
0.57	303.431	15.6883	80.8806
0.5725	303.413	15.7683	80.8188
0.575	303.394	15.8487	80.7574
0.5775	303.374	15.9294	80.6962
0.58	303.354	16.0106	80.6353
0.5825	303.333	16.0922	80.5747
0.585	303.311	16.1742	80.5143
0.5875	303.289	16.2567	80.4542
0.59	303.266	16.3395	80.3945
0.5925	303.242	16.4227	80.335
0.595	303.218	16.5064	80.2757
0.5975	303.193	16.5904	80.2168
0.6	303.167	16.6749	80.1581
0.6025	303.14	16.7598	80.0998
0.605	303.113	16.8451	80.0417
0.6075	303.085	16.9309	79.9839
0.61	303.057	17.0171	79.9264
0.6125	303.027	17.1037	79.8692
0.615	302.997	17.1907	79.8122
0.6175	302.966	17.2782	79.7556
0.62	302.935	17.366	79.6992
0.6225	302.902	17.4544	79.6432
0.625	302.869	17.5431	79.5874
0.6275	302.836	17.6323	79.5319
0.63	302.801	17.7219	79.4767
0.6325	302.766	17.812	79.4218
0.635	302.73	17.9025	79.3672
0.6375	302.694	17.9935	79.3129
0.64	302.656	18.0849	79.2589
0.6425	302.618	18.1767	79.2052
0.645	302.579	18.269	79.1518
0.6475	302.54	18.3618	79.0987
0.65	302.499	18.455	79.0459
0.6525	302.458	18.5486	78.9933
0.655	302.416	18.6427	78.9411
0.6575	302.373	18.7373	78.8892
0.66	302.33	18.8323	78.8376
0.6625	302.286	18.9278	78.7863
0.665	302.241	19.0238	78.7353
0.6675	302.195	19.1202	78.6845
0.67	302.149	19.2171	78.6341
0.6725	302.102	19.3144	78.584
0.675	302.053	19.4123	78.5343
0.6775	302.005	19.5105	78.4848
0.68	301.955	19.6093	78.4356
0.6825	301.905	19.7086	78.3867
0.685	301.854	19.8083	78.3382
0.6875	301.802	19.9085	78.2899
0.69	301.749	20.0092	78.242
0.6925	301.695	20.1103	78.1944
0.695	301.641	20.212	78.1471
0.6975	301.586	20.3141	78.1001
0.7	301.53	20.4167	78.0534
0.7025	301.473	20.5198	78.007
0.705	301.416	20.6234	77.961
0.7075	301.357	20.7275	77.9152
0.71	301.298	20.8321	77.8698
0.7125	301.238	20.9372	77.8247
0.715	301.177	21.0428	77.7799
0.7175	301.116	21.1489	77.7355
0.72	301.053	21.2554	77.6913
0.7225	300.99	21.3625	77.6475
0.725	300.926	21.4701	77.604
0.7275	300.861	21.5782	77.5609
0.73	300.795	21.6868	77.518
0.7325	300.729	21.796	77.4755
0.735	300.661	21.9056	77.4333
0.7375	300.593	22.0157	77.3914
0.74	300.524	22.1264	77.3499
0.7425	300.454	22.2376	77.3087
0.745	300.383	22.3493	77.2678
0.7475	300.311	22.4615	77.2273
0.75	300.239	22.5742	77.1871
0.7525	300.165	22.6875	77.1472
0.755	300.091	22.8013	77.1076
0.7575	300.016	22.9156	77.0684
0.76	299.94	23.0305	77.0295
0.7625	299.863	23.1459	76.991
0.765	299.785	23.2618	76.9528
0.7675	299.707	23.3782	76.9149
0.77	299.627	23.4952	76.8774
0.7725	299.547	23.6127	76.8402
0.775	299.466	23.7308	76.8034
0.7775	299.384	23.8494	76.7669
0.78	299.301	23.9686	76.7307
0.7825	299.217	24.0883	76.6949
0.785	299.132	24.2085	76.6594
0.7875	299.046	24.3293	76.6243
0.79	298.96	24.4506	76.5895
0.7925	298.872	24.5725	76.555
0.795	298.784	24.695	76.521
0.7975	298.695	24.818	76.4872
0.8	298.605	24.9415	76.4538
0.8025	298.514	25.0657	76.4208
0.805	298.422	25.1903	76.3881
0.8075	298.329	25.3156	76.3558
0.81	298.235	25.4414	76.3238
0.8125	298.14	25.5677	76.2922
0.815	298.044	25.6947	76.2609
0.8175	297.948	25.8222	76.23
0.82	297.85	25.9503	76.1994
0.8225	297.752	26.0789	76.1692
0.825	297.652	26.2081	76.1394
0.8275	297.552	26.3379	76.1099
0.83	297.451	26.4683	76.0808
0.8325	297.349	26.5992	76.0521
0.835	297.246	26.7307	76.0237
0.8375	297.141	26.8628	75.9957
0.84	297.036	26.9955	75.968
0.8425	296.93	27.1288	75.9407
0.845	296.824	27.2626	75.9138
0.8475	296.716	27.3971	75.8873
0.85	296.607	27.5321	75.8611
0.8525	296.497	27.6677	75.8353
0.855	296.386	27.8039	75.8098
0.8575	296.274	27.9408	75.7848
0.86	296.162	28.0781	75.7601
0.8625	296.048	28.2161	75.7357
0.865	295.933	28.3547	75.7118
0.8675	295.818	28.4939	75.6882
0.87	295.701	28.6337	75.6651
0.8725	295.584	28.7741	75.6422
0.875	295.465	28.9151	75.6198
0.8775	295.346	29.0567	75.5978
0.88	295.225	29.1989	75.5761
0.8825	295.103	29.3417	75.5548
0.885	294.981	29.4851	75.5339
0.8875	294.857	29.6292	75.5134
0.89	294.733	29.7738	75.4933
0.8925	294.607	29.9191	75.4736
0.895	294.481	30.0649	75.4542
0.8975	294.353	30.2114	75.4352
0.9	294.225	30.3585	75.4167
0.9025	294.095	30.5062	75.3985
0.905	293.965	30.6546	75.3807
0.9075	293.833	30.8035	75.3633
0.91	293.701	30.9531	75.3463
0.9125	293.567	31.1033	75.3297
0.915	293.432	31.2541	75.3135
0.9175	293.297	31.4056	75.2977
0.92	293.16	31.5577	75.2823
0.9225	293.022	31.7104	75.2673
0.925	292.884	31.8637	75.2527
0.9275	292.744	32.0177	75.2385
0.93	292.603	32.1723	75.2247
0.9325	292.461	32.3275	75.2113
0.935	292.318	32.4834	75.1983
0.9375	292.174	32.6399	75.1857
0.94	292.029	32.797	75.1735
0.9425	291.883	32.9548	75.1617
0.945	291.736	33.1132	75.1504
0.9475	291.588	33.2722	75.1394
0.95	291.439	33.4319	75.1289
0.9525	291.289	33.5922	75.1188
0.955	291.138	33.7532	75.1091
0.9575	290.985	33.9148	75.0998
0.96	290.832	34.077	75.0909
0.9625	290.678	34.2399	75.0824
0.965	290.522	34.4035	75.0744
0.9675	290.366	34.5677	75.0668
0.97	290.208	34.7325	75.0596
0.9725	290.049	34.898	75.0528
0.975	289.889	35.0641	75.0464
0.9775	289.729	35.2309	75.0405
0.98	289.567	35.3983	75.035
0.9825	289.404	35.5664	75.0299
0.985	289.24	35.7352	75.0252
0.9875	289.074	35.9045	75.021
0.99	288.908	36.0746	75.0172
0.9925	288.741	36.2453	75.0138
0.995	288.572	36.4166	75.0109
0.9975	288.403	36.5886	75.0084
1	288.232	36.7613	75.0063
1.0025	288.061	36.9346	75.0047
1.005	287.888	37.1086	75.0035
1.0075	287.714	37.2832	75.0027
1.01	287.539	37.4585	75.0024
1.0125	287.363	37.6345	75.0025
1.015	287.186	37.8111	75.003
1.0175	287.008	37.9884	75.004
1.02	286.828	38.1663	75.0055
1.0225	286.648	38.3449	75.0074
1.025	286.466	38.5242	75.0097
1.0275	286.283	38.7041	75.0124
1.03	286.1	38.8846	75.0157
1.0325	285.915	39.0659	75.0193
1.035	285.729	39.2478	75.0234
1.0375	285.542	39.4304	75.028
1.04	285.353	39.6136	75.033
1.0425	285.164	39.7975	75.0385
1.045	284.974	39.982	75.0444
1.0475	284.782	40.1673	75.0508
1.05	284.589	40.3532	75.0576
1.0525	284.395	40.5397	75.0649
1.055	284.2	40.7269	75.0727
1.0575	284.004	40.9148	75.0809
1.06	283.807	41.1033	75.0895
1.0625	283.609	41.2926	75.0987
1.065	283.409	41.4824	75.1083
1.0675	283.209	41.673	75.1183
1.07	283.007	41.8642	75.1288
1.0725	282.804	42.056	75.1398
1.075	282.6	42.2486	75.1513
1.0775	282.395	42.4418	75.1632
1.08	282.189	42.6356	75.1756
1.0825	281.981	42.8302	75.1884
1.085	281.773	43.0253	75.2017
1.0875	281.563	43.2212	75.2155
1.09	281.352	43.4177	75.2298
1.0925	281.141	43.6149	75.2445
1.095	280.928	43.8127	75.2598
1.0975	280.713	44.0112	75.2755
1.1	280.498	44.2104	75.2916
1.1025	280.281	44.4102	75.3083
1.105	280.064	44.6107	75.3254
1.1075	279.845	44.8119	75.343
1.11	279.625	45.0137	75.3611
1.1125	279.404	45.2161	75.3797
1.115	279.182	45.4193	75.3987
1.1175	278.959	45.6231	75.4183
1.12	278.734	45.8275	75.4383
1.1225	278.509	46.0326	75.4588
1.125	278.282	46.2384	75.4798
1.1275	278.054	46.4448	75.5013
1.13	277.825	46.6519	75.5233
1.1325	277.595	46.8596	75.5458
1.135	277.363	47.068	75.5687
1.1375	277.131	47.277	75.5922
1.14	276.897	47.4867	75.6161
1.1425	276.662	47.697	75.6406
1.145	276.427	47.908	75.6655
1.1475	276.189	48.1196	75.691
1.15	275.951	48.3319	75.7169
1.1525	275.712	48.5448	75.7433
1.155	275.471	48.7584	75.7703
1.1575	275.23	48.9726	75.7977
1.16	274.987	49.1874	75.8256
1.1625	274.743	49.4029	75.8541
1.165	274.498	49.6191	75.883
1.1675	274.252	49.8359	75.9125
1.17	274.004	50.0533	75.9424
1.1725	273.756	50.2713	75.9729
1.175	273.506	50.49	76.0038
1.1775	273.255	50.7094	76.0353
1.18	273.003	50.9293	76.0673
1.1825	272.75	51.1499	76.0998
1.185	272.496	51.3711	76.1328
1.1875	272.241	51.593	76.1663
1.19	271.984	51.8154	76.2003
1.1925	271.727	52.0385	76.2349
1.195	271.468	52.2623	76.2699
1.1975	271.208	52.4866	76.3055
1.2	270.947	52.7116	76.3416
1.2025	270.685	52.9371	76.3782
1.205	270.421	53.1633	76.4154
1.2075	270.157	53.3902	76.453
1.21	269.891	53.6176	76.4912
1.2125	269.625	53.8456	76.5299
1.215	269.357	54.0743	76.5691
1.2175	269.088	54.3035	76.6088
1.22	268.818	54.5334	76.6491
1.2225	268.546	54.7638	76.6899
1.225	268.274	54.9949	76.7312
1.2275	268	55.2265	76.773
1.23	267.726	55.4588	76.8154
1.2325	267.45	55.6916	76.8583
1.235	267.173	55.925	76.9017
1.2375	266.895	56.1591	76.9456
1.24	266.616	56.3937	76.9901
1.2425	266.336	56.6289	77.0351
1.245	266.055	56.8647	77.0807
1.2475	265.772	57.101	77.1267
1.25	265.489	57.3379	77.1734
1.2525	265.204	57.5754	77.2205
1.255	264.918	57.8135	77.2682
1.2575	264.631	58.0522	77.3164
1.26	264.343	58.2914	77.3652
1.2625	264.054	58.5312	77.4144
1.265	263.764	58.7715	77.4643
1.2675	263.473	59.0124	77.5146
1.27	263.181	59.2538	77.5655
1.2725	262.887	59.4958	77.617
1.275	262.593	59.7384	77.669
1.2775	262.297	59.9815	77.7215
1.28	262	60.2251	77.7746
1.2825	261.702	60.4693	77.8282
1.285	261.404	60.714	77.8824
1.2875	261.104	60.9593	77.9371
1.29	260.803	61.2051	77.9923
1.2925	260.501	61.4514	78.0481
1.295	260.197	61.6982	78.1045
1.2975	259.893	61.9456	78.1613
1.3	259.588	62.1935	78.2188
1.3025	259.281	62.4418	78.2768
1.305	258.974	62.6907	78.3353
1.3075	258.665	62.9402	78.3944
1.31	258.356	63.1901	78.454
1.3125	258.045	63.4405	78.5142
1.315	257.734	63.6914	78.5749
1.3175	257.421	63.9428	78.6362
1.32	257.107	64.1947	78.6981
1.3225	256.792	64.4471	78.7604
1.325	256.477	64.6999	78.8234
1.3275	256.16	64.9533	78.8869
1.33	255.842	65.2071	78.9509
1.3325	255.523	65.4614	79.0155
1.335	255.203	65.7161	79.0807
1.3375	254.882	65.9713	79.1464
1.34	254.56	66.227	79.2127
1.3425	254.237	66.4831	79.2795
1.345	253.913	66.7397	79.3469
1.3475	253.588	66.9967	79.4149
1.35	253.262	67.2542	79.4834
1.3525	252.935	67.5121	79.5524
1.355	252.608	67.7705	79.622
1.3575	252.279	68.0292	79.6922
1.36	251.949	68.2884	79.763
1.3625	251.618	68.548	79.8342
1.365	251.286	68.8081	79.9061
1.3675	250.953	69.0685	79.9785
1.37	250.619	69.3294	80.0515
1.3725	250.284	69.5906	80.125
1.375	249.949	69.8523	80.1991
1.3775	249.612	70.1144	80.2738
1.38	249.274	70.3768	80.349
1.3825	248.936	70.6396	80.4248
1.385	248.596	70.9028	80.5012
1.3875	248.256	71.1664	80.5781
1.39	247.914	71.4304	80.6556
1.3925	247.572	71.6947	80.7336
1.395	247.228	71.9594	80.8122
1.3975	246.884	72.2244	80.8914
1.4	246.539	72.4898	80.9711
1.4025	246.193	72.7555	81.0514
1.405	245.846	73.0216	81.1322
1.4075	245.498	73.288	81.2137
1.41	245.15	73.5548	81.2956
1.4125	244.8	73.8219	81.3782
1.415	244.449	74.0893	81.4613
1.4175	244.098	74.357	81.545
1.42	243.746	74.625	81.6292
1.4225	243.393	74.8933	81.714
1.425	243.039	75.1619	81.7994
1.4275	242.684	75.4309	81.8853
1.43	242.328	75.7001	81.9718
1.4325	241.972	75.9696	82.0589
1.435	241.614	76.2394	82.1466
1.4375	241.256	76.5094	82.2347
1.44	240.897	76.7797	82.3235
1.4425	240.537	77.0503	82.4128
1.445	240.176	77.3211	82.5027
1.4475	239.815	77.5922	82.5932
1.45	239.452	77.8636	82.6842
1.4525	239.089	78.1351	82.7758
1.455	238.725	78.407	82.8679
1.4575	238.36	78.679	82.9607
1.46	237.995	78.9513	83.0539
1.4625	237.628	79.2237	83.1478
1.465	237.261	79.4964	83.2422
1.4675	236.894	79.7693	83.3372
1.47	236.525	80.0424	83.4327
1.4725	236.155	80.3157	83.5288
1.475	235.785	80.5892	83.6254
1.4775	235.414	80.8629	83.7227
1.48	235.043	81.1367	83.8205
1.4825	234.67	81.4107	83.9188
1.485	234.297	81.6849	84.0177
1.4875	233.924	81.9592	84.1172
1.49	233.549	82.2337	84.2172
1.4925	233.174	82.5083	84.3178
1.495	232.798	82.7831	84.419
1.4975	232.421	83.058	84.5207
1.5	232.044	83.333	84.6229
1.5025	231.666	83.6082	84.7258
1.505	231.287	83.8834	84.8292
1.5075	230.908	84.1588	84.9331
1.51	230.528	84.4343	85.0376
1.5125	230.147	84.7099	85.1427
1.515	229.766	84.9855	85.2483
1.5175	229.384	85.2613	85.3545
1.52	229.002	85.5371	85.4612
1.5225	228.618	85.813	85.5685
1.525	228.235	86.0889	85.6764
1.5275	227.85	86.365	85.7848
1.53	227.465	86.641	85.8938
1.5325	227.08	86.9171	86.0033
1.535	226.693	87.1933	86.1133
1.5375	226.307	87.4695	86.224
1.54	225.919	87.7457	86.3351
1.5425	225.531	88.0219	86.4468
1.545	225.143	88.2982	86.5591
1.5475	224.754	88.5744	86.6719
1.55	224.364	88.8507	86.7853
1.5525	223.974	89.1269	86.8992
1.555	223.583	89.4031	87.0137
1.5575	223.192	89.6793	87.1287
1.56	222.8	89.9555	87.2443
1.5625	222.408	90.2317	87.3604
1.565	222.015	90.5078	87.477
1.5675	221.622	90.7838	87.5942
1.57	221.228	91.0598	87.712
1.5725	220.834	91.3358	87.8302
1.575	220.439	91.6117	87.9491
1.5775	220.044	91.8875	88.0684
1.58	219.648	92.1632	88.1883
1.5825	219.252	92.4388	88.3088
1.585	218.856	92.7144	88.4298
1.5875	218.459	92.9898	88.5513
1.59	218.062	93.2651	88.6733
1.5925	217.664	93.5404	88.7959
1.595	217.266	93.8155	88.919
1.5975	216.867	94.0904	89.0427
1.6	216.468	94.3653	89.1669
1.6025	216.068	94.6399	89.2916
1.605	215.669	94.9145	89.4168
1.6075	215.268	95.1889	89.5426
1.61	214.868	95.4631	89.6689
1.6125	214.467	95.7372	89.7958
1.615	214.066	96.011	89.9231
1.6175	213.664	96.2847	90.051
1.62	213.262	96.5582	90.1794
1.6225	212.86	96.8316	90.3084
1.625	212.458	97.1047	90.4378
1.6275	212.055	97.3776	90.5678
1.63	211.651	97.6502	90.6983
1.6325	211.248	97.9227	90.8293
1.635	210.844	98.1949	90.9608
1.6375	210.44	98.4669	91.0929
1.64	210.036	98.7387	91.2254
1.6425	209.631	99.0102	91.3585
1.645	209.227	99.2814	91.4921
1.6475	208.821	99.5524	91.6262
1.65	208.416	99.8231	91.7608
1.6525	208.011	100.093	91.8959
1.655	207.605	100.364	92.0315
1.6575	207.199	100.633	92.1676
1.66	206.793	100.903	92.3043
1.6625	206.386	101.172	92.4414
1.665	205.98	101.441	92.579
1.6675	205.573	101.71	92.7171
1.67	205.166	101.978	92.8558
1.6725	204.759	102.246	92.9949
1.675	204.352	102.514	93.1345
1.6775	203.944	102.781	93.2746
1.68	203.537	103.048	93.4152
1.6825	203.129	103.314	93.5563
1.685	202.722	103.581	93.6979
1.6875	202.314	103.846	93.84
1.69	201.906	104.112	93.9825
1.6925	201.498	104.377	94.1256
1.695	201.089	104.641	94.2691
1.6975	200.681	104.906	94.4131
1.7	200.273	105.17	94.5576
1.7025	199.864	105.433	94.7026
1.705	199.456	105.696	94.848
1.7075	199.047	105.959	94.9939
1.71	198.639	106.221	95.1403
1.7125	198.23	106.482	95.2872
1.715	197.822	106.744	95.4345
1.7175	197.413	107.005	95.5823
1.72	197.004	107.265	95.7306
1.7225	196.596	107.525	95.8793
1.725	196.187	107.784	96.0285
1.7275	195.779	108.043	96.1782
1.73	195.37	108.302	96.3283
1.7325	194.962	108.56	96.4789
1.735	194.553	108.817	96.6299
1.7375	194.145	109.074	96.7814
1.74	193.736	109.331	96.9333
1.7425	193.328	109.586	97.0857
1.745	192.92	109.842	97.2385
1.7475	192.511	110.097	97.3918
1.75	192.103	110.351	97.5455
1.7525	191.695	110.605	97.6997
1.755	191.287	110.858	97.8543
1.7575	190.88	111.111	98.0093
1.76	190.472	111.363	98.1648
1.7625	190.064	111.615	98.3207
1.765	189.657	111.866	98.4771
1.7675	189.25	112.116	98.6339
1.77	188.843	112.366	98.7911
1.7725	188.436	112.615	98.9487
1.775	188.029	112.864	99.1068
1.7775	187.623	113.112	99.2653
1.78	187.216	113.36	99.4242
1.7825	186.81	113.606	99.5835
1.785	186.404	113.853	99.7433
1.7875	185.998	114.098	99.9034
1.79	185.593	114.343	100.064
1.7925	185.187	114.588	100.225
1.795	184.782	114.831	100.386
1.7975	184.377	115.074	100.548
1.8	183.973	115.317	100.71
1.8025	183.568	115.559	100.873
1.805	183.164	115.8	101.036
1.8075	182.76	116.04	101.199
1.81	182.357	116.28	101.363
1.8125	181.954	116.519	101.527
1.815	181.551	116.757	101.692
1.8175	181.148	116.995	101.857
1.82	180.746	117.232	102.022
1.8225	180.344	117.468	102.188
1.825	179.942	117.704	102.354
1.8275	179.54	117.939	102.521
1.83	179.139	118.173	102.688
1.8325	178.739	118.406	102.855
1.835	178.338	118.639	103.022
1.8375	177.938	118.871	103.19
1.84	177.539	119.102	103.359
1.8425	177.14	119.333	103.528
1.845	176.741	119.563	103.697
1.8475	176.342	119.792	103.866
1.85	175.944	120.02	104.036
1.8525	175.546	120.247	104.206
1.855	175.149	120.474	104.377
1.8575	174.752	120.7	104.548
1.86	174.356	120.925	104.719
1.8625	173.96	121.15	104.89
1.865	173.564	121.373	105.062
1.8675	173.169	121.596	105.235
1.87	172.775	121.818	105.407
1.8725	172.38	122.039	105.58
1.875	171.987	122.26	105.754
1.8775	171.593	122.479	105.927
1.88	171.201	122.698	106.101
1.8825	170.808	122.916	106.275
1.885	170.417	123.133	106.45
1.8875	170.025	123.35	106.625
1.89	169.635	123.565	106.8
1.8925	169.244	123.78	106.976
1.895	168.855	123.994	107.152
1.8975	168.465	124.207	107.328
1.9	168.077	124.419	107.504
1.9025	167.689	124.63	107.681
1.905	167.301	124.841	107.858
1.9075	166.914	125.05	108.036
1.91	166.527	125.259	108.213
1.9125	166.141	125.467	108.391
1.915	165.756	125.674	108.57
1.9175	165.371	125.88	108.748
1.92	164.987	126.086	108.927
1.9225	164.603	126.29	109.107
1.925	164.22	126.494	109.286
1.9275	163.838	126.696	109.466
1.93	163.456	126.898	109.646
1.9325	163.075	127.099	109.826
1.935	162.694	127.299	110.007
1.9375	162.315	127.498	110.188
1.94	161.935	127.696	110.369
1.9425	161.557	127.893	110.55
1.945	161.179	128.09	110.732
1.9475	160.801	128.285	110.914
1.95	160.424	128.48	111.096
1.9525	160.048	128.673	111.278
1.955	159.673	128.866	111.461
1.9575	159.298	129.058	111.644
1.96	158.924	129.249	111.827
1.9625	158.551	129.439	112.011
1.965	158.178	129.628	112.195
1.9675	157.806	129.816	112.378
1.97	157.435	130.003	112.563
1.9725	157.064	130.189	112.747
1.975	156.694	130.374	112.932
1.9775	156.325	130.558	113.117
1.98	155.956	130.742	113.302
1.9825	155.589	130.924	113.487
1.985	155.222	131.106	113.673
1.9875	154.855	131.286	113.858
1.99	154.49	131.466	114.044
1.9925	154.125	131.644	114.231
1.995	153.761	131.822	114.417
1.9975	153.397	131.999	114.604
2	153.035	132.175	114.791
2.0025	152.673	132.349	114.978
2.005	152.312	132.523	115.165
2.0075	151.952	132.696	115.352
2.01	151.592	132.868	115.54
2.0125	151.234	133.039	115.728
2.015	150.876	133.209	115.916
2.0175	150.518	133.378	116.104
2.02	150.162	133.545	116.292
2.0225	149.806	133.712	116.481
2.025	149.452	133.878	116.67
2.0275	149.098	134.043	116.859
2.03	148.745	134.208	117.048
2.0325	148.392	134.371	117.237
2.035	148.041	134.533	117.427
2.0375	147.69	134.694	117.616
2.04	147.34	134.854	117.806
2.0425	146.991	135.013	117.996
2.045	146.643	135.171	118.186
2.0475	146.295	135.328	118.376
2.05	145.949	135.484	118.567
2.0525	145.603	135.639	118.757
2.055	145.258	135.794	118.948
2.0575	144.914	135.947	119.139
2.06	144.571	136.099	119.33
2.0625	144.229	136.25	119.521
2.065	143.887	136.4	119.712
2.0675	143.547	136.549	119.904
2.07	143.207	136.697	120.095
2.0725	142.868	136.845	120.287
2.075	142.53	136.991	120.479
2.0775	142.193	137.136	120.671
2.08	141.857	137.28	120.863
2.0825	141.522	137.423	121.055
2.085	141.187	137.565	121.247
2.0875	140.854	137.707	121.44
2.09	140.521	137.847	121.632
2.0925	140.189	137.986	121.825
2.095	139.858	138.124	122.018
2.0975	139.528	138.261	122.211
2.1	139.199	138.397	122.404
2.1025	138.871	138.532	122.597
2.105	138.544	138.666	122.79
2.1075	138.217	138.8	122.983
2.11	137.892	138.932	123.176
2.1125	137.568	139.063	123.37
2.115	137.244	139.193	123.563
2.1175	136.921	139.322	123.757
2.12	136.6	139.45	123.95
2.1225	136.279	139.577	124.144
2.125	135.959	139.703	124.338
2.1275	135.64	139.828	124.532
2.13	135.322	139.952	124.726
2.1325	135.005	140.076	124.92
2.135	134.689	140.198	125.114
2.1375	134.373	140.319	125.308
2.14	134.059	140.439	125.502
2.1425	133.746	140.558	125.696
2.145	133.433	140.676	125.891
2.1475	133.122	140.793	126.085
2.15	132.811	140.909	126.279
2.1525	132.502	141.024	126.474
2.155	132.193	141.138	126.668
2.1575	131.886	141.251	126.863
2.16	131.579	141.364	127.057
2.1625	131.273	141.475	127.252
2.165	130.969	141.585	127.447
2.1675	130.665	141.694	127.641
2.17	130.362	141.802	127.836
2.1725	130.06	141.909	128.031
2.175	129.759	142.015	128.226
2.1775	129.459	142.12	128.42
2.18	129.16	142.225	128.615
2.1825	128.862	142.328	128.81
2.185	128.565	142.43	129.005
2.1875	128.269	142.531	129.2
2.19	127.974	142.631	129.394
2.1925	127.68	142.731	129.589
2.195	127.387	142.829	129.784
2.1975	127.095	142.926	129.979
2.2	126.804	143.023	130.174
2.2025	126.513	143.118	130.369
2.205	126.224	143.212	130.563
2.2075	125.936	143.306	130.758
2.21	125.649	143.398	130.953
2.2125	125.363	143.49	131.148
2.215	125.077	143.58	131.343
2.2175	124.793	143.67	131.537
2.22	124.51	143.758	131.732
2.2225	124.227	143.846	131.927
2.225	123.946	143.933	132.122
2.2275	123.666	144.018	132.316
2.23	123.386	144.103	132.511
2.2325	123.108	144.187	132.705
2.235	122.831	144.27	132.9
2.2375	122.554	144.351	133.095
2.24	122.279	144.432	133.289
2.2425	122.004	144.512	133.483
2.245	121.731	144.591	133.678
2.2475	121.458	144.669	133.872
2.25	121.187	144.747	134.067
2.2525	120.917	144.823	134.261
2.255	120.647	144.898	134.455
2.2575	120.379	144.972	134.649
2.26	120.111	145.046	134.843
2.2625	119.845	145.118	135.037
2.265	119.579	145.19	135.231
2.2675	119.315	145.26	135.425
2.27	119.051	145.33	135.619
2.2725	118.789	145.399	135.813
2.275	118.527	145.467	136.006
2.2775	118.266	145.533	136.2
2.28	118.007	145.599	136.394
2.2825	117.748	145.665	136.587
2.285	117.491	145.729	136.78
2.2875	117.234	145.792	136.974
2.29	116.979	145.854	137.167
2.2925	116.724	145.916	137.36
2.295	116.47	145.976	137.553
2.2975	116.218	146.036	137.746
2.3	115.966	146.095	137.939
2.3025	115.716	146.153	138.132
2.305	115.466	146.21	138.324
2.3075	115.217	146.266	138.517
2.31	114.97	146.321	138.709
2.3125	114.723	146.375	138.902
2.315	114.477	146.429	139.094
2.3175	114.233	146.481	139.286
2.32	113.989	146.533	139.478
2.3225	113.746	146.584	139.67
2.325	113.504	146.634	139.862
2.3275	113.264	146.683	140.054
2.33	113.024	146.731	140.245
2.3325	112.785	146.778	140.437
2.335	112.547	146.825	140.628
2.3375	112.31	146.87	140.819
2.34	112.074	146.915	141.01
2.3425	111.84	146.959	141.201
2.345	111.606	147.002	141.392
2.3475	111.373	147.044	141.583
2.35	111.141	147.086	141.773
2.3525	110.91	147.126	141.964
2.355	110.68	147.166	142.154
2.3575	110.451	147.205	142.344
2.36	110.223	147.243	142.534
2.3625	109.996	147.28	142.724
2.365	109.77	147.317	142.914
2.3675	109.544	147.352	143.103
2.37	109.32	147.387	143.293
2.3725	109.097	147.421	143.482
2.375	108.875	147.454	143.671
2.3775	108.653	147.486	143.86
2.38	108.433	147.518	144.049
2.3825	108.214	147.548	144.238
2.385	107.995	147.578	144.426
2.3875	107.778	147.607	144.615
2.39	107.562	147.636	144.803
2.3925	107.346	147.663	144.991
2.395	107.131	147.69	145.179
2.3975	106.918	147.716	145.366
2.4	106.705	147.741	145.554
2.4025	106.493	147.765	145.741
2.405	106.283	147.789	145.928
2.4075	106.073	147.812	146.115
2.41	105.864	147.834	146.302
2.4125	105.656	147.855	146.489
2.415	105.449	147.876	146.675
2.4175	105.243	147.896	146.861
2.42	105.038	147.915	147.047
2.4225	104.834	147.933	147.233
2.425	104.631	147.95	147.419
2.4275	104.429	147.967	147.604
2.43	104.227	147.983	147.79
2.4325	104.027	147.998	147.975
2.435	103.827	148.013	148.16
2.4375	103.629	148.027	148.345
2.44	103.431	148.04	148.529
2.4425	103.235	148.052	148.713
2.445	103.039	148.064	148.898
2.4475	102.844	148.075	149.081
2.45	102.65	148.085	149.265
2.4525	102.457	148.094	149.449
2.455	102.265	148.103	149.632
2.4575	102.074	148.111	149.815
2.46	101.884	148.118	149.998
2.4625	101.694	148.125	150.181
2.465	101.506	148.131	150.363
2.4675	101.318	148.136	150.546
2.47	101.132	148.141	150.728
2.4725	100.946	148.144	150.909
2.475	100.761	148.148	151.091
2.4775	100.578	148.15	151.272
2.48	100.395	148.152	151.454
2.4825	100.212	148.153	151.635
2.485	100.031	148.153	151.815
2.4875	99.851	148.153	151.996
2.49	99.6716	148.152	152.176
2.4925	99.4931	148.151	152.356
2.495	99.3155	148.149	152.536
2.4975	99.1388	148.146	152.716
2.5	98.9629	148.142	152.895
2.5025	98.788	148.138	153.074
2.505	98.6139	148.133	153.253
2.5075	98.4407	148.128	153.432
2.51	98.2684	148.122	153.61
2.5125	98.097	148.115	153.788
2.515	97.9264	148.108	153.966
2.5175	97.7567	148.1	154.144
2.52	97.5879	148.091	154.321
2.5225	97.4199	148.082	154.498
2.525	97.2528	148.072	154.675
2.5275	97.0866	148.061	154.852
2.53	96.9212	148.05	155.029
2.5325	96.7567	148.039	155.205
2.535	96.593	148.026	155.381
2.5375	96.4302	148.013	155.556
2.54	96.2683	148	155.732
2.5425	96.1072	147.986	155.907
2.545	95.9469	147.971	156.082
2.5475	95.7875	147.956	156.257
2.55	95.6289	147.94	156.431
2.5525	95.4712	147.923	156.605
2.555	95.3143	147.906	156.779
2.5575	95.1583	147.889	156.953
2.56	95.0031	147.871	157.126
2.5625	94.8487	147.852	157.299
2.565	94.6951	147.833	157.472
2.5675	94.5424	147.813	157.645
2.57	94.3905	147.792	157.817
2.5725	94.2394	147.771	157.989
2.575	94.0892	147.75	158.161
2.5775	93.9398	147.728	158.333
2.58	93.7912	147.705	158.504
2.5825	93.6434	147.682	158.675
2.585	93.4964	147.658	158.846
2.5875	93.3502	147.634	159.016
2.59	93.2048	147.609	159.186
2.5925	93.0603	147.584	159.356
2.595	92.9165	147.558	159.526
2.5975	92.7736	147.531	159.695
2.6	92.6314	147.504	159.864
2.6025	92.49	147.477	160.033
2.605	92.3495	147.449	160.202
2.6075	92.2097	147.42	160.37
2.61	92.0707	147.392	160.538
2.6125	91.9325	147.362	160.705
2.615	91.7951	147.332	160.873
2.6175	91.6585	147.302	161.04
2.62	91.5226	147.271	161.207
2.6225	91.3876	147.239	161.373
2.625	91.2533	147.207	161.539
2.6275	91.1198	147.175	161.705
2.63	90.987	147.142	161.871
2.6325	90.855	147.109	162.036
2.635	90.7238	147.075	162.202
2.6375	90.5934	147.04	162.366
2.64	90.4637	147.005	162.531
2.6425	90.3348	146.97	162.695
2.645	90.2066	146.934	162.859
2.6475	90.0792	146.898	163.023
2.65	89.9526	146.862	163.186
2.6525	89.8266	146.824	163.349
2.655	89.7015	146.787	163.512
2.6575	89.5771	146.749	163.674
2.66	89.4534	146.71	163.836
2.6625	89.3305	146.672	163.998
2.665	89.2083	146.632	164.16
2.6675	89.0868	146.592	164.321
2.67	88.9661	146.552	164.482
2.6725	88.8461	146.512	164.642
2.675	88.7269	146.47	164.803
2.6775	88.6083	146.429	164.963
2.68	88.4905	146.387	165.122
2.6825	88.3735	146.345	165.282
2.685	88.2571	146.302	165.441
2.6875	88.1414	146.259	165.6
2.69	88.0265	146.215	165.758
2.6925	87.9123	146.171	165.916
2.695	87.7988	146.127	166.074
2.6975	87.686	146.082	166.232
2.7	87.5739	146.037	166.389
2.7025	87.4625	145.991	166.546
2.705	87.3518	145.945	166.703
2.7075	87.2418	145.899	166.859
2.71	87.1326	145.852	167.015
2.7125	87.024	145.805	167.171
2.715	86.9161	145.758	167.326
2.7175	86.8088	145.71	167.481
2.72	86.7023	145.662	167.636
2.7225	86.5965	145.613	167.79
2.725	86.4913	145.564	167.945
2.7275	86.3868	145.515	168.098
2.73	86.283	145.465	168.252
2.7325	86.1799	145.415	168.405
2.735	86.0774	145.365	168.558
2.7375	85.9757	145.314	168.711
2.74	85.8746	145.263	168.863
2.7425	85.7741	145.211	169.015
2.745	85.6743	145.159	169.166
2.7475	85.5752	145.107	169.318
2.75	85.4767	145.055	169.469
2.7525	85.3789	145.002	169.619
2.755	85.2818	144.949	169.769
2.7575	85.1853	144.895	169.919
2.76	85.0894	144.841	170.069
2.7625	84.9942	144.787	170.219
2.765	84.8997	144.733	170.368
2.7675	84.8058	144.678	170.516
2.77	84.7125	144.623	170.665
2.7725	84.6199	144.567	170.813
2.775	84.5279	144.512	170.96
2.7775	84.4365	144.456	171.108
2.78	84.3458	144.399	171.255
2.7825	84.2557	144.343	171.402
2.785	84.1662	144.286	171.548
2.7875	84.0773	144.228	171.694
2.79	83.9891	144.171	171.84
2.7925	83.9015	144.113	171.986
2.795	83.8145	144.055	172.131
2.7975	83.7281	143.996	172.275
2.8	83.6424	143.938	172.42
2.8025	83.5572	143.879	172.564
2.805	83.4727	143.819	172.708
2.8075	83.3887	143.76	172.851
2.81	83.3054	143.7	172.995
2.8125	83.2227	143.64	173.137
2.815	83.1405	143.579	173.28
2.8175	83.059	143.519	173.422
2.82	82.9781	143.458	173.564
2.8225	82.8977	143.397	173.706
2.825	82.818	143.335	173.847
2.8275	82.7388	143.274	173.988
2.83	82.6602	143.212	174.128
2.8325	82.5822	143.149	174.268
2.835	82.5048	143.087	174.408
2.8375	82.428	143.024	174.548
2.84	82.3517	142.961	174.687
2.8425	82.276	142.898	174.826
2.845	82.2009	142.835	174.964
2.8475	82.1264	142.771	175.103
2.85	82.0524	142.707	175.24
2.8525	81.979	142.643	175.378
2.855	81.9062	142.579	175.515
2.8575	81.8339	142.514	175.652
2.86	81.7622	142.449	175.789
2.8625	81.691	142.384	175.925
2.865	81.6204	142.319	176.061
2.8675	81.5504	142.253	176.196
2.87	81.4809	142.188	176.332
2.8725	81.4119	142.122	176.466
2.875	81.3435	142.055	176.601
2.8775	81.2757	141.989	176.735
2.88	81.2083	141.923	176.869
2.8825	81.1416	141.856	177.003
2.885	81.0753	141.789	177.136
2.8875	81.0096	141.722	177.269
2.89	80.9445	141.654	177.401
2.8925	80.8798	141.587	177.534
2.895	80.8157	141.519	177.665
2.8975	80.7521	141.451	177.797
2.9	80.6891	141.383	177.928
2.9025	80.6266	141.314	178.059
2.905	80.5646	141.246	178.19
2.9075	80.5031	141.177	178.32
2.91	80.4421	141.108	178.45
2.9125	80.3816	141.039	178.579
2.915	80.3217	140.97	178.708
2.9175	80.2623	140.9	178.837
2.92	80.2033	140.831	178.966
2.9225	80.1449	140.761	179.094
2.925	80.087	140.691	179.222
2.9275	80.0296	140.621	179.349
2.93	79.9727	140.551	179.477
2.9325	79.9163	140.48	179.604
2.935	79.8604	140.41	179.73
2.9375	79.8049	140.339	179.856
2.94	79.75	140.268	179.982
2.9425	79.6956	140.197	180.108
2.945	79.6416	140.126	180.233
2.9475	79.5882	140.054	180.358
2.95	79.5352	139.983	180.482
2.9525	79.4827	139.911	180.606
2.955	79.4307	139.839	180.73
2.9575	79.3792	139.767	180.854
2.96	79.3281	139.695	180.977
2.9625	79.2775	139.623	181.1
2.965	79.2274	139.55	181.222
2.9675	79.1778	139.478	181.344
2.97	79.1286	139.405	181.466
2.9725	79.0799	139.332	181.588
2.975	79.0316	139.259	181.709
2.9775	78.9839	139.186	181.83
2.98	78.9365	139.113	181.95
2.9825	78.8897	139.04	182.071
2.985	78.8433	138.966	182.19
2.9875	78.7973	138.893	182.31
2.99	78.7518	138.819	182.429
2.9925	78.7068	138.745	182.548
2.995	78.6622	138.671	182.666
2.9975	78.618	138.597	182.785
3	78.5743	138.523	182.902
3.0025	78.5311	138.449	183.02
3.005	78.4883	138.375	183.137
3.0075	78.4459	138.3	183.254
3.01	78.4039	138.226	183.371
3.0125	78.3624	138.151	183.487
3.015	78.3214	138.076	183.603
3.0175	78.2807	138.001	183.718
3.02	78.2405	137.926	183.833
3.0225	78.2007	137.851	183.948
3.025	78.1614	137.776	184.063
3.0275	78.1225	137.701	184.177
3.03	78.084	137.625	184.291
3.0325	78.0459	137.55	184.404
3.035	78.0082	137.474	184.517
3.0375	77.971	137.399	184.63
3.04	77.9341	137.323	184.743
3.0425	77.8977	137.247	184.855
3.045	77.8617	137.171	184.967
3.0475	77.8261	137.095	185.079
3.05	77.7909	137.019	185.19
3.0525	77.7561	136.943	185.301
3.055	77.7218	136.867	185.411
3.0575	77.6878	136.791	185.521
3.06	77.6542	136.714	185.631
3.0625	77.621	136.638	185.741
3.065	77.5883	136.562	185.85
3.0675	77.5559	136.485	185.959
3.07	77.5239	136.408	186.068
3.0725	77.4923	136.332	186.176
3.075	77.4611	136.255	186.284
3.0775	77.4303	136.178	186.392
3.08	77.3999	136.101	186.499
3.0825	77.3698	136.024	186.606
3.085	77.3402	135.947	186.712
3.0875	77.3109	135.87	186.819
3.09	77.282	135.793	186.925
3.0925	77.2535	135.716	187.03
3.095	77.2254	135.639	187.136
3.0975	77.1976	135.562	187.241
3.1	77.1702	135.484	187.345
3.1025	77.1432	135.407	187.45
3.105	77.1166	135.33	187.554
3.1075	77.0903	135.252	187.658
3.11	77.0644	135.175	187.761
3.1125	77.0388	135.097	187.864
3.115	77.0136	135.02	187.967
3.1175	76.9888	134.942	188.069
3.12	76.9644	134.864	188.171
3.1225	76.9403	134.787	188.273
3.125	76.9165	134.709	188.375
3.1275	76.8931	134.631	188.476
3.13	76.8701	134.553	188.577
3.1325	76.8474	134.475	188.677
3.135	76.8251	134.398	188.777
3.1375	76.8031	134.32	188.877
3.14	76.7815	134.242	188.977
3.1425	76.7602	134.164	189.076
3.145	76.7392	134.086	189.175
3.1475	76.7186	134.008	189.273
3.15	76.6984	133.93	189.372
3.1525	76.6785	133.852	189.47
3.155	76.6589	133.774	189.567
3.1575	76.6396	133.696	189.665
3.16	76.6207	133.618	189.762
3.1625	76.6021	133.54	189.858
3.165	76.5839	133.461	189.955
3.1675	76.566	133.383	190.051
3.17	76.5484	133.305	190.146
3.1725	76.5311	133.227	190.242
3.175	76.5142	133.149	190.337
3.1775	76.4976	133.071	190.432
3.18	76.4813	132.992	190.526
3.1825	76.4653	132.914	190.62
3.185	76.4497	132.836	190.714
3.1875	76.4343	132.758	190.808
3.19	76.4193	132.68	190.901
3.1925	76.4046	132.601	190.994
3.195	76.3902	132.523	191.087
3.1975	76.3762	132.445	191.179
3.2	76.3624	132.367	191.271
3.2025	76.349	132.289	191.362
3.205	76.3358	132.21	191.454
3.2075	76.323	132.132	191.545
3.21	76.3104	132.054	191.636
3.2125	76.2982	131.976	191.726
3.215	76.2863	131.898	191.816
3.2175	76.2746	131.819	191.906
3.22	76.2633	131.741	191.996
3.2225	76.2523	131.663	192.085
3.225	76.2416	131.585	192.174
3.2275	76.2311	131.507	192.262
3.23	76.221	131.429	192.351
3.2325	76.2111	131.35	192.439
3.235	76.2015	131.272	192.526
3.2375	76.1923	131.194	192.614
3.24	76.1833	131.116	192.701
3.2425	76.1746	131.038	192.787
3.245	76.1662	130.96	192.874
3.2475	76.158	130.882	192.96
3.25	76.1502	130.804	193.046
3.2525	76.1426	130.726	193.131
3.255	76.1353	130.648	193.217
3.2575	76.1283	130.57	193.302
3.26	76.1216	130.492	193.386
3.2625	76.1151	130.414	193.471
3.265	76.1089	130.336	193.555
3.2675	76.103	130.259	193.638
3.27	76.0974	130.181	193.722
3.2725	76.092	130.103	193.805
3.275	76.0869	130.025	193.888
3.2775	76.082	129.948	193.97
3.28	76.0775	129.87	194.053
3.2825	76.0732	129.792	194.135
3.285	76.0691	129.715	194.216
3.2875	76.0653	129.637	194.298
3.29	76.0618	129.559	194.379
3.2925	76.0586	129.482	194.46
3.295	76.0556	129.404	194.54
3.2975	76.0528	129.327	194.62
3.3	76.0503	129.25	194.7
3.3025	76.0481	129.172	194.78
3.305	76.0461	129.095	194.859
3.3075	76.0444	129.018	194.938
3.31	76.0429	128.94	195.017
3.3125	76.0417	128.863	195.095
3.315	76.0407	128.786	195.173
3.3175	76.04	128.709	195.251
3.32	76.0395	128.632	195.329
3.3225	76.0392	128.555	195.406
3.325	76.0392	128.478	195.483
3.3275	76.0395	128.401	195.56
3.33	76.0399	128.324	195.636
3.3325	76.0407	128.247	195.712
3.335	76.0416	128.17	195.788
3.3375	76.0428	128.094	195.864
3.34	76.0443	128.017	195.939
3.3425	76.0459	127.94	196.014
3.345	76.0478	127.864	196.089
3.3475	76.05	127.787	196.163
3.35	76.0523	127.711	196.237
3.3525	76.0549	127.634	196.311
3.355	76.0577	127.558	196.384
3.3575	76.0608	127.482	196.458
3.36	76.0641	127.405	196.531
3.3625	76.0676	127.329	196.603
3.365	76.0713	127.253	196.676
3.3675	76.0752	127.177	196.748
3.37	76.0794	127.101	196.82
3.3725	76.0838	127.025	196.891
3.375	76.0884	126.949	196.963
3.3775	76.0932	126.873	197.034
3.38	76.0983	126.797	197.105
3.3825	76.1035	126.721	197.175
3.385	76.109	126.646	197.245
3.3875	76.1147	126.57	197.315
3.39	76.1206	126.495	197.385
3.3925	76.1267	126.419	197.454
3.395	76.1331	126.344	197.523
3.3975	76.1396	126.268	197.592
3.4	76.1463	126.193	197.661
3.4025	76.1533	126.118	197.729
3.405	76.1604	126.043	197.797
3.4075	76.1678	125.968	197.865
3.41	76.1754	125.893	197.932
3.4125	76.1831	125.818	197.999
3.415	76.1911	125.743	198.066
3.4175	76.1993	125.668	198.133
3.42	76.2077	125.593	198.199
3.4225	76.2162	125.519	198.265
3.425	76.225	125.444	198.331
3.4275	76.234	125.369	198.397
3.43	76.2431	125.295	198.462
3.4325	76.2525	125.221	198.527
3.435	76.262	125.146	198.592
3.4375	76.2717	125.072	198.656
3.44	76.2817	124.998	198.72
3.4425	76.2918	124.924	198.784
3.445	76.3021	124.85	198.848
3.4475	76.3126	124.776	198.912
3.45	76.3233	124.702	198.975
3.4525	76.3342	124.628	199.038
3.455	76.3452	124.555	199.1
3.4575	76.3564	124.481	199.163
3.46	76.3679	124.407	199.225
3.4625	76.3795	124.334	199.287
3.465	76.3913	124.261	199.348
3.4675	76.4032	124.187	199.41
3.47	76.4154	124.114	199.471
3.4725	76.4277	124.041	199.531
3.475	76.4402	123.968	199.592
3.4775	76.4529	123.895	199.652
3.48	76.4657	123.822	199.712
3.4825	76.4787	123.749	199.772
3.485	76.4919	123.676	199.832
3.4875	76.5053	123.604	199.891
3.49	76.5188	123.531	199.95
3.4925	76.5326	123.459	200.009
3.495	76.5464	123.386	200.067
3.4975	76.5605	123.314	200.125
3.5	76.5747	123.242	200.183
3.5025	76.5891	123.17	200.241
3.505	76.6036	123.098	200.299
3.5075	76.6183	123.026	200.356
3.51	76.6332	122.954	200.413
3.5125	76.6483	122.882	200.47
3.515	76.6635	122.81	200.526
3.5175	76.6788	122.739	200.582
3.52	76.6943	122.667	200.638
3.5225	76.71	122.596	200.694
3.525	76.7259	122.524	200.75
3.5275	76.7419	122.453	200.805
3.53	76.758	122.382	200.86
3.5325	76.7743	122.311	200.915
3.535	76.7908	122.24	200.969
3.5375	76.8074	122.169	201.023
3.54	76.8242	122.098	201.077
3.5425	76.8411	122.028	201.131
3.545	76.8582	121.957	201.185
3.5475	76.8754	121.887	201.238
3.55	76.8927	121.816	201.291
3.5525	76.9103	121.746	201.344
3.555	76.9279	121.676	201.396
3.5575	76.9457	121.605	201.449
3.56	76.9637	121.535	201.501
3.5625	76.9818	121.465	201.553
3.565	77	121.396	201.604
3.5675	77.0184	121.326	201.656
3.57	77.037	121.256	201.707
3.5725	77.0556	121.187	201.758
3.575	77.0745	121.117	201.808
3.5775	77.0934	121.048	201.859
3.58	77.1125	120.979	201.909
3.5825	77.1317	120.909	201.959
3.585	77.1511	120.84	202.009
3.5875	77.1706	120.771	202.058
3.59	77.1903	120.702	202.107
3.5925	77.21	120.634	202.156
3.595	77.2299	120.565	202.205
3.5975	77.25	120.496	202.254
3.6	77.2702	120.428	202.302
3.6025	77.2905	120.36	202.35
3.605	77.3109	120.291	202.398
3.6075	77.3315	120.223	202.445
3.61	77.3522	120.155	202.493
3.6125	77.373	120.087	202.54
3.615	77.3939	120.019	202.587
3.6175	77.415	119.951	202.634
3.62	77.4362	119.884	202.68
3.6225	77.4575	119.816	202.726
3.625	77.479	119.749	202.772
3.6275	77.5006	119.681	202.818
3.63	77.5223	119.614	202.864
3.6325	77.5441	119.547	202.909
3.635	77.566	119.48	202.954
3.6375	77.5881	119.413	202.999
3.64	77.6103	119.346	203.044
3.6425	77.6326	119.279	203.088
3.645	77.655	119.213	203.132
3.6475	77.6775	119.146	203.176
3.65	77.7002	119.08	203.22
3.6525	77.723	119.013	203.264
3.655	77.7459	118.947	203.307
3.6575	77.7689	118.881	203.35
3.66	77.792	118.815	203.393
3.6625	77.8152	118.749	203.436
3.665	77.8385	118.683	203.478
3.6675	77.862	118.617	203.521
3.67	77.8856	118.552	203.563
3.6725	77.9092	118.486	203.604
3.675	77.933	118.421	203.646
3.6775	77.9569	118.356	203.687
3.68	77.9809	118.291	203.729
3.6825	78.005	118.225	203.77
3.685	78.0292	118.161	203.81
3.6875	78.0535	118.096	203.851
3.69	78.0779	118.031	203.891
3.6925	78.1025	117.966	203.931
3.695	78.1271	117.902	203.971
3.6975	78.1518	117.837	204.011
3.7	78.1767	117.773	204.05
3.7025	78.2016	117.709	204.09
3.705	78.2266	117.645	204.129
3.7075	78.2518	117.581	204.167
3.71	78.277	117.517	204.206
3.7125	78.3023	117.453	204.245
3.715	78.3278	117.389	204.283
3.7175	78.3533	117.326	204.321
3.72	78.3789	117.262	204.359
3.7225	78.4047	117.199	204.396
3.725	78.4305	117.136	204.434
3.7275	78.4564	117.073	204.471
3.73	78.4824	117.01	204.508
3.7325	78.5085	116.947	204.545
3.735	78.5347	116.884	204.581
3.7375	78.561	116.821	204.618
3.74	78.5874	116.759	204.654
3.7425	78.6138	116.696	204.69
3.745	78.6404	116.634	204.725
3.7475	78.667	116.572	204.761
3.75	78.6938	116.51	204.796
3.7525	78.7206	116.448	204.832
3.755	78.7475	116.386	204.867
3.7575	78.7745	116.324	204.901
3.76	78.8016	116.262	204.936
3.7625	78.8288	116.201	204.97
3.765	78.856	116.139	205.005
3.7675	78.8834	116.078	205.039
3.77	78.9108	116.017	205.072
3.7725	78.9383	115.956	205.106
3.775	78.9659	115.895	205.139
3.7775	78.9936	115.834	205.173
3.78	79.0213	115.773	205.206
3.7825	79.0491	115.712	205.238
3.785	79.0771	115.652	205.271
3.7875	79.105	115.591	205.303
3.79	79.1331	115.531	205.336
3.7925	79.1613	115.471	205.368
3.795	79.1895	115.411	205.4
3.7975	79.2178	115.351	205.431
3.8	79.2462	115.291	205.463
3.8025	79.2746	115.231	205.494
3.805	79.3032	115.172	205.525
3.8075	79.3318	115.112	205.556
3.81	79.3605	115.053	205.587
3.8125	79.3892	114.993	205.618
3.815	79.418	114.934	205.648
3.8175	79.4469	114.875	205.678
3.82	79.4759	114.816	205.708
3.8225	79.505	114.757	205.738
3.825	79.5341	114.698	205.767
3.8275	79.5633	114.64	205.797
3.83	79.5925	114.581	205.826
3.8325	79.6218	114.523	205.855
3.835	79.6512	114.465	205.884
3.8375	79.6807	114.406	205.913
3.84	79.7102	114.348	205.941
3.8425	79.7398	114.29	205.97
3.845	79.7695	114.233	205.998
3.8475	79.7992	114.175	206.026
3.85	79.829	114.117	206.054
3.8525	79.8588	114.06	206.081
3.855	79.8887	114.002	206.109
3.8575	79.9187	113.945	206.136
3.86	79.9488	113.888	206.163
3.8625	79.9789	113.831	206.19
3.865	80.009	113.774	206.217
3.8675	80.0393	113.717	206.244
3.87	80.0696	113.661	206.27
3.8725	80.0999	113.604	206.296
3.875	80.1303	113.548	206.322
3.8775	80.1608	113.491	206.348
3.88	80.1913	113.435	206.374
3.8825	80.2219	113.379	206.399
3.885	80.2525	113.323	206.425
3.8875	80.2832	113.267	206.45
3.89	80.314	113.211	206.475
3.8925	80.3448	113.155	206.5
3.895	80.3757	113.1	206.524
3.8975	80.4066	113.045	206.549
3.9	80.4376	112.989	206.573
3.9025	80.4686	112.934	206.597
3.905	80.4997	112.879	206.621
3.9075	80.5308	112.824	206.645
3.91	80.562	112.769	206.669
3.9125	80.5932	112.714	206.692
3.915	80.6245	112.66	206.716
3.9175	80.6559	112.605	206.739
3.92	80.6873	112.551	206.762
3.9225	80.7187	112.497	206.785
3.925	80.7502	112.442	206.807
3.9275	80.7817	112.388	206.83
3.93	80.8133	112.334	206.852
3.9325	80.8449	112.281	206.875
3.935	80.8766	112.227	206.897
3.9375	80.9084	112.173	206.918
3.94	80.9401	112.12	206.94
3.9425	80.972	112.066	206.962
3.945	81.0038	112.013	206.983
3.9475	81.0357	111.96	207.004
3.95	81.0677	111.907	207.025
3.9525	81.0997	111.854	207.046
3.955	81.1318	111.801	207.067
3.9575	81.1638	111.749	207.088
3.96	81.196	111.696	207.108
3.9625	81.2282	111.644	207.128
3.965	81.2604	111.591	207.148
3.9675	81.2926	111.539	207.168
3.97	81.3249	111.487	207.188
3.9725	81.3573	111.435	207.208
3.975	81.3896	111.383	207.227
3.9775	81.4221	111.331	207.247
3.98	81.4545	111.28	207.266
3.9825	81.487	111.228	207.285
3.985	81.5195	111.177	207.304
3.9875	81.5521	111.125	207.323
3.99	81.5847	111.074	207.341
3.9925	81.6174	111.023	207.36
3.995	81.6501	110.972	207.378
3.9975	81.6828	110.921	207.396
4	81.7155	110.871	207.414
4.0025	81.7483	110.82	207.432
4.005	81.7811	110.769	207.449
4.0075	81.814	110.719	207.467
4.01	81.8469	110.669	207.484
4.0125	81.8798	110.619	207.502
4.015	81.9128	110.568	207.519
4.0175	81.9458	110.519	207.536
4.02	81.9788	110.469	207.553
4.0225	82.0118	110.419	207.569
4.025	82.0449	110.369	207.586
4.0275	82.078	110.32	207.602
4.03	82.1112	110.271	207.618
4.0325	82.1444	110.221	207.634
4.035	82.1776	110.172	207.65
4.0375	82.2108	110.123	207.666
4.04	82.2441	110.074	207.682
4.0425	82.2774	110.025	207.697
4.045	82.3107	109.977	207.713
4.0475	82.344	109.928	207.728
4.05	82.3774	109.88	207.743
4.0525	82.4108	109.831	207.758
4.055	82.4442	109.783	207.773
4.0575	82.4777	109.735	207.787
4.06	82.5112	109.687	207.802
4.0625	82.5447	109.639	207.816
4.065	82.5782	109.591	207.831
4.0675	82.6118	109.544	207.845
4.07	82.6453	109.496	207.859
4.0725	82.6789	109.449	207.873
4.075	82.7126	109.401	207.886
4.0775	82.7462	109.354	207.9
4.08	82.7799	109.307	207.913
4.0825	82.8136	109.26	207.927
4.085	82.8473	109.213	207.94
4.0875	82.881	109.166	207.953
4.09	82.9148	109.12	207.966
4.0925	82.9486	109.073	207.978
4.095	82.9824	109.027	207.991
4.0975	83.0162	108.98	208.004
4.1	83.05	108.934	208.016
4.1025	83.0839	108.888	208.028
4.105	83.1177	108.842	208.04
4.1075	83.1516	108.796	208.052
4.11	83.1855	108.75	208.064
4.1125	83.2195	108.705	208.076
4.115	83.2534	108.659	208.088
4.1175	83.2874	108.614	208.099
4.12	83.3214	108.568	208.11
4.1225	83.3554	108.523	208.122
4.125	83.3894	108.478	208.133
4.1275	83.4234	108.433	208.144
4.13	83.4574	108.388	208.154
4.1325	83.4915	108.343	208.165
4.135	83.5256	108.299	208.176
4.1375	83.5596	108.254	208.186
4.14	83.5937	108.21	208.197
4.1425	83.6279	108.165	208.207
4.145	83.662	108.121	208.217
4.1475	83.6961	108.077	208.227
4.15	83.7303	108.033	208.237
4.1525	83.7644	107.989	208.246
4.155	83.7986	107.945	208.256
4.1575	83.8328	107.902	208.266
4.16	83.867	107.858	208.275
4.1625	83.9012	107.815	208.284
4.165	83.9354	107.771	208.293
4.1675	83.9696	107.728	208.302
4.17	84.0039	107.685	208.311
4.1725	84.0381	107.642	208.32
4.175	84.0724	107.599	208.329
4.1775	84.1066	107.556	208.337
4.18	84.1409	107.514	208.345
4.1825	84.1752	107.471	208.354
4.185	84.2095	107.429	208.362
4.1875	84.2437	107.386	208.37
4.19	84.278	107.344	208.378
4.1925	84.3124	107.302	208.386
4.195	84.3467	107.26	208.394
4.1975	84.381	107.218	208.401
4.2	84.4153	107.176	208.409
4.2025	84.4496	107.134	208.416
4.205	84.484	107.093	208.423
4.2075	84.5183	107.051	208.43
4.21	84.5527	107.01	208.437
4.2125	84.587	106.969	208.444
4.215	84.6214	106.927	208.451
4.2175	84.6557	106.886	208.458
4.22	84.6901	106.845	208.464
4.2225	84.7244	106.805	208.471
4.225	84.7588	106.764	208.477
4.2275	84.7932	106.723	208.484
4.23	84.8276	106.683	208.49
4.2325	84.8619	106.642	208.496
4.235	84.8963	106.602	208.502
4.2375	84.9307	106.562	208.507
4.24	84.965	106.522	208.513
4.2425	84.9994	106.482	208.519
4.245	85.0338	106.442	208.524
4.2475	85.0682	106.402	208.53
4.25	85.1026	106.362	208.535
4.2525	85.1369	106.323	208.54
4.255	85.1713	106.283	208.545
4.2575	85.2057	106.244	208.55
4.26	85.2401	106.205	208.555
4.2625	85.2744	106.166	208.56
4.265	85.3088	106.127	208.565
4.2675	85.3432	106.088	208.569
4.27	85.3775	106.049	208.574
4.2725	85.4119	106.01	208.578
4.275	85.4462	105.972	208.582
4.2775	85.4806	105.933	208.586
4.28	85.5149	105.895	208.59
4.2825	85.5493	105.856	208.594
4.285	85.5836	105.818	208.598
4.2875	85.618	105.78	208.602
4.29	85.6523	105.742	208.606
4.2925	85.6866	105.704	208.609
4.295	85.721	105.666	208.613
4.2975	85.7553	105.629	208.616
4.3	85.7896	105.591	208.619
4.3025	85.8239	105.554	208.622
4.305	85.8582	105.516	208.625
4.3075	85.8925	105.479	208.628
4.31	85.9268	105.442	208.631
4.3125	85.961	105.405	208.634
4.315	85.9953	105.368	208.637
4.3175	86.0296	105.331	208.639
4.32	86.0638	105.294	208.642
4.3225	86.0981	105.258	208.644
4.325	86.1323	105.221	208.646
4.3275	86.1665	105.185	208.649
4.33	86.2008	105.149	208.651
4.3325	86.235	105.112	208.653
4.335	86.2692	105.076	208.655
4.3375	86.3034	105.04	208.656
4.34	86.3376	105.004	208.658
4.3425	86.3717	104.968	208.66
4.345	86.4059	104.933	208.661
4.3475	86.44	104.897	208.663
4.35	86.4742	104.862	208.664
4.3525	86.5083	104.826	208.665
4.355	86.5424	104.791	208.667
4.3575	86.5765	104.756	208.668
4.36	86.6106	104.721	208.669
4.3625	86.6447	104.686	208.67
4.365	86.6788	104.651	208.671
4.3675	86.7128	104.616	208.671
4.37	86.7469	104.581	208.672
4.3725	86.7809	104.547	208.672
4.375	86.8149	104.512	208.673
4.3775	86.8489	104.478	208.673
4.38	86.8829	104.443	208.674
4.3825	86.9169	104.409	208.674
4.385	86.9509	104.375	208.674
4.3875	86.9848	104.341	208.674
4.39	87.0187	104.307	208.674
4.3925	87.0527	104.273	208.674
4.395	87.0866	104.24	208.674
4.3975	87.1204	104.206	208.673
4.4	87.1543	104.173	208.673
4.4025	87.1882	104.139	208.673
4.405	87.222	104.106	208.672
4.4075	87.2558	104.073	208.671
4.41	87.2896	104.04	208.671
4.4125	87.3234	104.007	208.67
4.415	87.3572	103.974	208.669
4.4175	87.391	103.941	208.668
4.42	87.4247	103.908	208.667
4.4225	87.4584	103.875	208.666
4.425	87.4921	103.843	208.665
4.4275	87.5258	103.811	208.664
4.43	87.5595	103.778	208.662
4.4325	87.5931	103.746	208.661
4.435	87.6268	103.714	208.659
4.4375	87.6604	103.682	208.658
4.44	87.694	103.65	208.656
4.4425	87.7275	103.618	208.654
4.445	87.7611	103.586	208.653
4.4475	87.7946	103.555	208.651
4.45	87.8282	103.523	208.649
4.4525	87.8616	103.492	208.647
4.455	87.8951	103.46	208.645
4.4575	87.9286	103.429	208.642
4.46	87.962	103.398	208.64
4.4625	87.9954	103.367	208.638
4.465	88.0288	103.336	208.635
4.4675	88.0622	103.305	208.633
4.47	88.0955	103.274	208.63
4.4725	88.1289	103.243	208.628
4.475	88.1622	103.213	208.625
4.4775	88.1954	103.182	208.622
4.48	88.2287	103.152	208.619
4.4825	88.2619	103.122	208.616
4.485	88.2952	103.091	208.613
4.4875	88.3284	103.061	208.61
4.49	88.3615	103.031	208.607
4.4925	88.3947	103.001	208.604
4.495	88.4278	102.972	208.601
4.4975	88.4609	102.942	208.597
4.5	88.494	102.912	208.594
4.5025	88.527	102.883	208.59
4.505	88.5601	102.853	208.587
4.5075	88.5931	102.824	208.583
4.51	88.626	102.795	208.579
4.5125	88.659	102.765	208.576
4.515	88.6919	102.736	208.572
4.5175	88.7248	102.707	208.568
4.52	88.7577	102.678	208.564
4.5225	88.7906	102.65	208.56
4.525	88.8234	102.621	208.556
4.5275	88.8562	102.592	208.552
4.53	88.889	102.564	208.547
4.5325	88.9217	102.535	208.543
4.535	88.9545	102.507	208.539
4.5375	88.9872	102.479	208.534
4.54	89.0198	102.45	208.53
4.5425	89.0525	102.422	208.525
4.545	89.0851	102.394	208.521
4.5475	89.1177	102.366	208.516
4.55	89.1502	102.339	208.511
4.5525	89.1828	102.311	208.506
4.555	89.2153	102.283	208.501
4.5575	89.2478	102.256	208.496
4.56	89.2802	102.228	208.491
4.5625	89.3127	102.201	208.486
4.565	89.3451	102.174	208.481
4.5675	89.3774	102.147	208.476
4.57	89.4098	102.119	208.471
4.5725	89.4421	102.092	208.465
4.575	89.4744	102.066	208.46
4.5775	89.5066	102.039	208.455
4.58	89.5388	102.012	208.449
4.5825	89.571	101.985	208.444
4.585	89.6032	101.959	208.438
4.5875	89.6353	101.932	208.432
4.59	89.6674	101.906	208.427
4.5925	89.6995	101.88	208.421
4.595	89.7316	101.854	208.415
4.5975	89.7636	101.827	208.409
4.6	89.7956	101.801	208.403
4.6025	89.8275	101.776	208.397
4.605	89.8595	101.75	208.391
4.6075	89.8913	101.724	208.385
4.61	89.9232	101.698	208.379
4.6125	89.955	101.673	208.372
4.615	89.9868	101.647	208.366
4.6175	90.0186	101.622	208.36
4.62	90.0503	101.596	208.353
4.6225	90.0821	101.571	208.347
4.625	90.1137	101.546	208.34
4.6275	90.1454	101.521	208.334
4.63	90.177	101.496	208.327
4.6325	90.2086	101.471	208.32
4.635	90.2401	101.446	208.313
4.6375	90.2716	101.422	208.307
4.64	90.3031	101.397	208.3
4.6425	90.3345	101.373	208.293
4.645	90.366	101.348	208.286
4.6475	90.3973	101.324	208.279
4.65	90.4287	101.299	208.272
4.6525	90.46	101.275	208.265
4.655	90.4913	101.251	208.258
4.6575	90.5225	101.227	208.25
4.66	90.5537	101.203	208.243
4.6625	90.5849	101.179	208.236
4.665	90.6161	101.156	208.228
4.6675	90.6472	101.132	208.221
4.67	90.6782	101.108	208.214
4.6725	90.7093	101.085	208.206
4.675	90.7403	101.061	208.198
4.6775	90.7713	101.038	208.191
4.68	90.8022	101.015	208.183
4.6825	90.8331	100.991	208.175
4.685	90.864	100.968	208.168
4.6875	90.8948	100.945	208.16
4.69	90.9256	100.922	208.152
4.6925	90.9564	100.9	208.144
4.695	90.9871	100.877	208.136
4.6975	91.0178	100.854	208.128
4.7	91.0484	100.831	208.12
4.7025	91.0791	100.809	208.112
4.705	91.1096	100.787	208.104
4.7075	91.1402	100.764	208.096
4.71	91.1707	100.742	208.087
4.7125	91.2012	100.72	208.079
4.715	91.2316	100.698	208.071
4.7175	91.262	100.676	208.062
4.72	91.2924	100.654	208.054
4.7225	91.3227	100.632	208.046
4.725	91.353	100.61	208.037
4.7275	91.3832	100.588	208.029
4.73	91.4134	100.567	208.02
4.7325	91.4436	100.545	208.011
4.735	91.4738	100.524	208.003
4.7375	91.5039	100.502	207.994
4.74	91.5339	100.481	207.985
4.7425	91.564	100.46	207.976
4.745	91.5939	100.439	207.968
4.7475	91.6239	100.417	207.959
4.75	91.6538	100.396	207.95
4.7525	91.6837	100.376	207.941
4.755	91.7135	100.355	207.932
4.7575	91.7433	100.334	207.923
4.76	91.7731	100.313	207.914
4.7625	91.8028	100.293	207.904
4.765	91.8325	100.272	207.895
4.7675	91.8621	100.252	207.886
4.77	91.8917	100.231	207.877
4.7725	91.9213	100.211	207.868
4.775	91.9508	100.191	207.858
4.7775	91.9803	100.171	207.849
4.78	92.0098	100.151	207.839
4.7825	92.0392	100.131	207.83
4.785	92.0685	100.111	207.821
4.7875	92.0979	100.091	207.811
4.79	92.1272	100.071	207.801
4.7925	92.1564	100.052	207.792
4.795	92.1856	100.032	207.782
4.7975	92.2148	100.013	207.773
4.8	92.2439	99.9932	207.763
4.8025	92.273	99.9738	207.753
4.805	92.3021	99.9546	207.743
4.8075	92.3311	99.9354	207.734
4.81	92.36	99.9162	207.724
4.8125	92.389	99.8972	207.714
4.815	92.4178	99.8782	207.704
4.8175	92.4467	99.8593	207.694
4.82	92.4755	99.8405	207.684
4.8225	92.5043	99.8218	207.674
4.825	92.533	99.8031	207.664
4.8275	92.5617	99.7845	207.654
4.83	92.5903	99.766	207.644
4.8325	92.6189	99.7475	207.634
4.835	92.6475	99.7292	207.623
4.8375	92.676	99.7109	207.613
4.84	92.7045	99.6927	207.603
4.8425	92.7329	99.6745	207.593
4.845	92.7613	99.6564	207.582
4.8475	92.7896	99.6384	207.572
4.85	92.8179	99.6205	207.562
4.8525	92.8462	99.6027	207.551
4.855	92.8744	99.5849	207.541
4.8575	92.9026	99.5672	207.53
4.86	92.9308	99.5496	207.52
4.8625	92.9589	99.532	207.509
4.865	92.9869	99.5145	207.499
4.8675	93.0149	99.4971	207.488
4.87	93.0429	99.4798	207.477
4.8725	93.0708	99.4625	207.467
4.875	93.0987	99.4453	207.456
4.8775	93.1266	99.4282	207.445
4.88	93.1544	99.4111	207.434
4.8825	93.1821	99.3942	207.424
4.885	93.2098	99.3773	207.413
4.8875	93.2375	99.3604	207.402
4.89	93.2651	99.3437	207.391
4.8925	93.2927	99.327	207.38
4.895	93.3203	99.3104	207.369
4.8975	93.3478	99.2938	207.358
4.9	93.3752	99.2773	207.347
4.9025	93.4026	99.2609	207.336
4.905	93.43	99.2446	207.325
4.9075	93.4573	99.2283	207.314
4.91	93.4846	99.2121	207.303
4.9125	93.5118	99.196	207.292
4.915	93.539	99.1799	207.281
4.9175	93.5662	99.164	207.27
4.92	93.5933	99.148	207.259
4.9225	93.6203	99.1322	207.247
4.925	93.6474	99.1164	207.236
4.9275	93.6743	99.1007	207.225
4.93	93.7013	99.0851	207.214
4.9325	93.7281	99.0695	207.202
4.935	93.755	99.054	207.191
4.9375	93.7818	99.0386	207.18
4.94	93.8085	99.0232	207.168
4.9425	93.8352	99.0079	207.157
4.945	93.8619	98.9927	207.145
4.9475	93.8885	98.9775	207.134
4.95	93.9151	98.9625	207.122
4.9525	93.9416	98.9474	207.111
4.955	93.9681	98.9325	207.099
4.9575	93.9945	98.9176	207.088
4.96	94.0209	98.9028	207.076
4.9625	94.0473	98.888	207.065
4.965	94.0736	98.8733	207.053
4.9675	94.0999	98.8587	207.041
4.97	94.1261	98.8442	207.03
4.9725	94.1522	98.8297	207.018
4.975	94.1784	98.8153	207.006
4.9775	94.2044	98.8009	206.995
4.98	94.2305	98.7867	206.983
4.9825	94.2565	98.7724	206.971
4.985	94.2824	98.7583	206.959
4.9875	94.3083	98.7442	206.947
4.99	94.3342	98.7302	206.936
4.9925	94.36	98.7162	206.924
4.995	94.3857	98.7024	206.912
4.9975	94.4114	98.6885	206.9
5	94.4371	98.6748	206.888
5.0025	94.4627	98.6611	206.876
5.005	94.4883	98.6475	206.864
5.0075	94.5138	98.6339	206.852
5.01	94.5393	98.6204	206.84
5.0125	94.5648	98.607	206.828
5.015	94.5902	98.5936	206.816
5.0175	94.6155	98.5803	206.804
5.02	94.6408	98.5671	206.792
5.0225	94.6661	98.5539	206.78
5.025	94.6913	98.5408	206.768
5.0275	94.7164	98.5277	206.756
5.03	94.7416	98.5148	206.744
5.0325	94.7666	98.5018	206.732
5.035	94.7916	98.489	206.719
5.0375	94.8166	98.4762	206.707
5.04	94.8416	98.4635	206.695
5.0425	94.8664	98.4508	206.683
5.045	94.8913	98.4382	206.671
5.0475	94.9161	98.4256	206.658
5.05	94.9408	98.4132	206.646
5.0525	94.9655	98.4008	206.634
5.055	94.9902	98.3884	206.621
5.0575	95.0148	98.3761	206.609
5.06	95.0393	98.3639	206.597
5.0625	95.0638	98.3517	206.584
5.065	95.0883	98.3396	206.572
5.0675	95.1127	98.3276	206.56
5.07	95.1371	98.3156	206.547
5.0725	95.1614	98.3037	206.535
5.075	95.1857	98.2918	206.523
5.0775	95.2099	98.28	206.51
5.08	95.2341	98.2683	206.498
5.0825	95.2582	98.2566	206.485
5.085	95.2823	98.245	206.473
5.0875	95.3064	98.2334	206.46
5.09	95.3304	98.2219	206.448
5.0925	95.3543	98.2105	206.435
5.095	95.3782	98.1991	206.423
5.0975	95.4021	98.1878	206.41
5.1	95.4259	98.1765	206.398
5.1025	95.4496	98.1653	206.385
5.105	95.4734	98.1542	206.372
5.1075	95.497	98.1431	206.36
5.11	95.5206	98.1321	206.347
5.1125	95.5442	98.1211	206.335
5.115	95.5677	98.1102	206.322
5.1175	95.5912	98.0994	206.309
5.12	95.6146	98.0886	206.297
5.1225	95.638	98.0779	206.284
5.125	95.6613	98.0672	206.271
5.1275	95.6846	98.0566	206.259
5.13	95.7079	98.0461	206.246
5.1325	95.731	98.0356	206.233
5.135	95.7542	98.0251	206.221
5.1375	95.7773	98.0148	206.208
5.14	95.8003	98.0044	206.195
5.1425	95.8233	97.9942	206.182
5.145	95.8463	97.984	206.17
5.1475	95.8692	97.9738	206.157
5.15	95.892	97.9637	206.144
5.1525	95.9148	97.9537	206.131
5.155	95.9376	97.9437	206.119
5.1575	95.9603	97.9338	206.106
5.16	95.983	97.9239	206.093
5.1625	96.0056	97.9141	206.08
5.165	96.0282	97.9044	206.067
5.1675	96.0507	97.8947	206.055
5.17	96.0732	97.8851	206.042
5.1725	96.0956	97.8755	206.029
5.175	96.118	97.866	206.016
5.1775	96.1403	97.8565	206.003
5.18	96.1626	97.8471	205.99
5.1825	96.1848	97.8377	205.977
5.185	96.207	97.8284	205.965
5.1875	96.2291	97.8192	205.952
5.19	96.2512	97.81	205.939
5.1925	96.2733	97.8008	205.926
5.195	96.2953	97.7917	205.913
5.1975	96.3172	97.7827	205.9
5.2	96.3391	97.7737	205.887
5.2025	96.3609	97.7648	205.874
5.205	96.3827	97.7559	205.861
5.2075	96.4045	97.7471	205.848
5.21	96.4262	97.7384	205.835
5.2125	96.4479	97.7297	205.822
5.215	96.4695	97.721	205.81
5.2175	96.491	97.7124	205.797
5.22	96.5125	97.7039	205.784
5.2225	96.534	97.6954	205.771
5.225	96.5554	97.6869	205.758
5.2275	96.5768	97.6786	205.745
5.23	96.5981	97.6702	205.732
5.2325	96.6194	97.6619	205.719
5.235	96.6406	97.6537	205.706
5.2375	96.6618	97.6455	205.693
5.24	96.6829	97.6374	205.68
5.2425	96.704	97.6293	205.667
5.245	96.725	97.6213	205.654
5.2475	96.746	97.6134	205.641
5.25	96.7669	97.6054	205.628
5.2525	96.7878	97.5976	205.615
5.255	96.8087	97.5898	205.602
5.2575	96.8294	97.582	205.589
5.26	96.8502	97.5743	205.576
5.2625	96.8709	97.5666	205.562
5.265	96.8915	97.559	205.549
5.2675	96.9121	97.5515	205.536
5.27	96.9327	97.544	205.523
5.2725	96.9532	97.5365	205.51
5.275	96.9736	97.5291	205.497
5.2775	96.994	97.5218	205.484
5.28	97.0144	97.5145	205.471
5.2825	97.0347	97.5072	205.458
5.285	97.0549	97.5	205.445
5.2875	97.0752	97.4928	205.432
5.29	97.0953	97.4857	205.419
5.2925	97.1154	97.4787	205.406
5.295	97.1355	97.4717	205.393
5.2975	97.1555	97.4647	205.38
5.3	97.1755	97.4578	205.367
5.3025	97.1954	97.451	205.354
5.305	97.2153	97.4442	205.341
5.3075	97.2351	97.4374	205.327
5.31	97.2549	97.4307	205.314
5.3125	97.2746	97.424	205.301
5.315	97.2943	97.4174	205.288
5.3175	97.3139	97.4108	205.275
5.32	97.3335	97.4043	205.262
5.3225	97.353	97.3979	205.249
5.325	97.3725	97.3914	205.236
5.3275	97.392	97.3851	205.223
5.33	97.4114	97.3787	205.21
5.3325	97.4307	97.3725	205.197
5.335	97.45	97.3662	205.184
5.3375	97.4693	97.36	205.171
5.34	97.4885	97.3539	205.158
5.3425	97.5076	97.3478	205.145
5.345	97.5267	97.3418	205.132
5.3475	97.5458	97.3358	205.118
5.35	97.5648	97.3298	205.105
5.3525	97.5837	97.3239	205.092
5.355	97.6026	97.3181	205.079
5.3575	97.6215	97.3123	205.066
5.36	97.6403	97.3065	205.053
5.3625	97.6591	97.3008	205.04
5.365	97.6778	97.2951	205.027
5.3675	97.6965	97.2895	205.014
5.37	97.7151	97.2839	205.001
5.3725	97.7337	97.2784	204.988
5.375	97.7522	97.2729	204.975
5.3775	97.7707	97.2674	204.962
5.38	97.7891	97.262	204.949
5.3825	97.8075	97.2567	204.936
5.385	97.8258	97.2514	204.923
5.3875	97.8441	97.2461	204.91
5.39	97.8623	97.2409	204.897
5.3925	97.8805	97.2357	204.884
5.395	97.8987	97.2306	204.871
5.3975	97.9168	97.2255	204.858
5.4	97.9348	97.2205	204.845
5.4025	97.9528	97.2155	204.832
5.405	97.9708	97.2105	204.819
5.4075	97.9887	97.2056	204.806
5.41	98.0065	97.2007	204.793
5.4125	98.0244	97.1959	204.78
5.415	98.0421	97.1911	204.767
5.4175	98.0598	97.1864	204.754
5.42	98.0775	97.1817	204.741
5.4225	98.0951	97.1771	204.728
5.425	98.1127	97.1725	204.715
5.4275	98.1302	97.1679	204.702
5.43	98.1477	97.1634	204.689
5.4325	98.1651	97.1589	204.676
5.435	98.1825	97.1545	204.663
5.4375	98.1998	97.1501	204.65
5.44	98.2171	97.1457	204.637
5.4425	98.2343	97.1414	204.624
5.445	98.2515	97.1371	204.611
5.4475	98.2687	97.1329	204.598
5.45	98.2858	97.1287	204.585
5.4525	98.3028	97.1246	204.573
5.455	98.3198	97.1205	204.56
5.4575	98.3368	97.1164	204.547
5.46	98.3537	97.1124	204.534
5.4625	98.3706	97.1084	204.521
5.465	98.3874	97.1045	204.508
5.4675	98.4041	97.1006	204.495
5.47	98.4208	97.0967	204.482
5.4725	98.4375	97.0929	204.47
5.475	98.4541	97.0892	204.457
5.4775	98.4707	97.0854	204.444
5.48	98.4872	97.0817	204.431
5.4825	98.5037	97.0781	204.418
5.485	98.5202	97.0745	204.405
5.4875	98.5366	97.0709	204.393
5.49	98.5529	97.0674	204.38
5.4925	98.5692	97.0639	204.367
5.495	98.5854	97.0604	204.354
5.4975	98.6016	97.057	204.341
5.5	98.6178	97.0536	204.329
5.5025	98.6339	97.0503	204.316
5.505	98.65	97.047	204.303
5.5075	98.666	97.0438	204.29
5.51	98.6819	97.0405	204.278
5.5125	98.6979	97.0374	204.265
5.515	98.7137	97.0342	204.252
5.5175	98.7296	97.0311	204.239
5.52	98.7453	97.0281	204.227
5.5225	98.7611	97.025	204.214
5.525	98.7768	97.0221	204.201
5.5275	98.7924	97.0191	204.188
5.53	98.808	97.0162	204.176
5.5325	98.8235	97.0133	204.163
5.535	98.839	97.0105	204.15
5.5375	98.8545	97.0077	204.138
5.54	98.8699	97.0049	204.125
5.5425	98.8853	97.0022	204.113
5.545	98.9006	96.9995	204.1
5.5475	98.9158	96.9969	204.087
5.55	98.9311	96.9943	204.075
5.5525	98.9462	96.9917	204.062
5.555	98.9614	96.9892	204.049
5.5575	98.9765	96.9867	204.037
5.56	98.9915	96.9842	204.024
5.5625	99.0065	96.9818	204.012
5.565	99.0214	96.9794	203.999
5.5675	99.0363	96.977	203.987
5.57	99.0512	96.9747	203.974
5.5725	99.066	96.9724	203.962
5.575	99.0808	96.9702	203.949
5.5775	99.0955	96.968	203.937
5.58	99.1101	96.9658	203.924
5.5825	99.1248	96.9636	203.912
5.585	99.1394	96.9615	203.899
5.5875	99.1539	96.9595	203.887
5.59	99.1684	96.9574	203.874
5.5925	99.1828	96.9554	203.862
5.595	99.1972	96.9535	203.849
5.5975	99.2116	96.9516	203.837
5.6	99.2259	96.9497	203.824
5.6025	99.2401	96.9478	203.812
5.605	99.2543	96.946	203.8
5.6075	99.2685	96.9442	203.787
5.61	99.2826	96.9424	203.775
5.6125	99.2967	96.9407	203.763
5.615	99.3107	96.939	203.75
5.6175	99.3247	96.9374	203.738
5.62	99.3387	96.9357	203.726
5.6225	99.3526	96.9342	203.713
5.625	99.3664	96.9326	203.701
5.6275	99.3802	96.9311	203.689
5.63	99.394	96.9296	203.676
5.6325	99.4077	96.9282	203.664
5.635	99.4214	96.9267	203.652
5.6375	99.435	96.9254	203.64
5.64	99.4486	96.924	203.627
5.6425	99.4621	96.9227	203.615
5.645	99.4756	96.9214	203.603
5.6475	99.4891	96.9201	203.591
5.65	99.5025	96.9189	203.579
5.6525	99.5158	96.9177	203.566
5.655	99.5292	96.9166	203.554
5.6575	99.5424	96.9154	203.542
5.66	99.5557	96.9144	203.53
5.6625	99.5688	96.9133	203.518
5.665	99.582	96.9123	203.506
5.6675	99.5951	96.9113	203.494
5.67	99.6081	96.9103	203.482
5.6725	99.6211	96.9094	203.47
5.675	99.6341	96.9085	203.457
5.6775	99.647	96.9076	203.445
5.68	99.6599	96.9068	203.433
5.6825	99.6727	96.9059	203.421
5.685	99.6855	96.9052	203.409
5.6875	99.6982	96.9044	203.397
5.69	99.7109	96.9037	203.385
5.6925	99.7236	96.903	203.373
5.695	99.7362	96.9024	203.361
5.6975	99.7487	96.9017	203.35
5.7	99.7612	96.9011	203.338
5.7025	99.7737	96.9006	203.326
5.705	99.7862	96.9001	203.314
5.7075	99.7985	96.8995	203.302
5.71	99.8109	96.8991	203.29
5.7125	99.8232	96.8986	203.278
5.715	99.8354	96.8982	203.266
5.7175	99.8477	96.8978	203.255
5.72	99.8598	96.8975	203.243
5.7225	99.872	96.8972	203.231
5.725	99.884	96.8969	203.219
5.7275	99.8961	96.8966	203.207
5.73	99.9081	96.8964	203.196
5.7325	99.92	96.8961	203.184
5.735	99.9319	96.896	203.172
5.7375	99.9438	96.8958	203.16
5.74	99.9556	96.8957	203.149
5.7425	99.9674	96.8956	203.137
5.745	99.9792	96.8955	203.125
5.7475	99.9909	96.8955	203.114
5.75	100.003	96.8955	203.102
5.7525	100.014	96.8955	203.09
5.755	100.026	96.8956	203.079
5.7575	100.037	96.8956	203.067
5.76	100.049	96.8957	203.056
5.7625	100.06	96.8959	203.044
5.765	100.072	96.896	203.032
5.7675	100.083	96.8962	203.021
5.77	100.094	96.8964	203.009
5.7725	100.105	96.8967	202.998
5.775	100.117	96.8969	202.986
5.7775	100.128	96.8972	202.975
5.78	100.139	96.8976	202.963
5.7825	100.15	96.8979	202.952
5.785	100.161	96.8983	202.941
5.7875	100.172	96.8987	202.929
5.79	100.183	96.8991	202.918
5.7925	100.194	96.8996	202.906
5.795	100.205	96.9001	202.895
5.7975	100.216	96.9006	202.884
5.8	100.227	96.9011	202.872
5.8025	100.237	96.9017	202.861
5.805	100.248	96.9023	202.85
5.8075	100.259	96.9029	202.838
5.81	100.27	96.9035	202.827
5.8125	100.28	96.9042	202.816
5.815	100.291	96.9049	202.804
5.8175	100.301	96.9056	202.793
5.82	100.312	96.9063	202.782
5.8225	100.322	96.9071	202.771
5.825	100.332	96.9079	202.76
5.8275	100.343	96.9087	202.748
5.83	100.353	96.9096	202.737
5.8325	100.363	96.9104	202.726
5.835	100.374	96.9113	202.715
5.8375	100.384	96.9122	202.704
5.84	100.394	96.9132	202.693
5.8425	100.404	96.9141	202.682
5.845	100.414	96.9151	202.671
5.8475	100.424	96.9162	202.66
5.85	100.434	96.9172	202.649
5.8525	100.444	96.9183	202.638
5.855	100.454	96.9193	202.627
5.8575	100.464	96.9205	202.616
5.86	100.474	96.9216	202.605
5.8625	100.484	96.9228	202.594
5.865	100.493	96.9239	202.583
5.8675	100.503	96.9251	202.572
5.87	100.513	96.9264	202.561
5.8725	100.522	96.9276	202.55
5.875	100.532	96.9289	202.539
5.8775	100.541	96.9302	202.528
5.88	100.551	96.9315	202.518
5.8825	100.56	96.9329	202.507
5.885	100.57	96.9342	202.496
5.8875	100.579	96.9356	202.485
5.89	100.588	96.9371	202.474
5.8925	100.598	96.9385	202.464
5.895	100.607	96.94	202.453
5.8975	100.616	96.9414	202.442
5.9	100.625	96.9429	202.432
5.9025	100.635	96.9445	202.421
5.905	100.644	96.946	202.41
5.9075	100.653	96.9476	202.4
5.91	100.662	96.9492	202.389
5.9125	100.671	96.9508	202.378
5.915	100.68	96.9524	202.368
5.9175	100.689	96.9541	202.357
5.92	100.698	96.9558	202.347
5.9225	100.706	96.9575	202.336
5.925	100.715	96.9592	202.326
5.9275	100.724	96.9609	202.315
5.93	100.733	96.9627	202.305
5.9325	100.741	96.9645	202.294
5.935	100.75	96.9663	202.284
5.9375	100.759	96.9681	202.273
5.94	100.767	96.97	202.263
5.9425	100.776	96.9718	202.252
5.945	100.784	96.9737	202.242
5.9475	100.793	96.9756	202.232
5.95	100.801	96.9776	202.221
5.9525	100.809	96.9795	202.211
5.955	100.818	96.9815	202.201
5.9575	100.826	96.9835	202.191
5.96	100.834	96.9855	202.18
5.9625	100.842	96.9875	202.17
5.965	100.851	96.9896	202.16
5.9675	100.859	96.9917	202.15
5.97	100.867	96.9938	202.139
5.9725	100.875	96.9959	202.129
5.975	100.883	96.998	202.119
5.9775	100.891	97.0002	202.109
5.98	100.899	97.0023	202.099
5.9825	100.907	97.0045	202.089
5.985	100.915	97.0067	202.079
5.9875	100.923	97.009	202.068
5.99	100.93	97.0112	202.058
5.9925	100.938	97.0135	202.048
5.995	100.946	97.0157	202.038
5.9975	100.954	97.0181	202.028
6	100.961	97.0204	202.018
6.0025	100.969	97.0227	202.008
6.005	100.976	97.0251	201.998
6.0075	100.984	97.0275	201.989
6.01	100.992	97.0298	201.979
6.0125	100.999	97.0323	201.969
6.015	101.006	97.0347	201.959
6.0175	101.014	97.0371	201.949
6.02	101.021	97.0396	201.939
6.0225	101.029	97.0421	201.929
6.025	101.036	97.0446	201.92
6.0275	101.043	97.0471	201.91
6.03	101.05	97.0497	201.9
6.0325	101.058	97.0522	201.89
6.035	101.065	97.0548	201.881
6.0375	101.072	97.0574	201.871
6.04	101.079	97.06	201.861
6.0425	101.086	97.0626	201.851
6.045	101.093	97.0653	201.842
6.0475	101.1	97.0679	201.832
6.05	101.107	97.0706	201.823
6.0525	101.114	97.0733	201.813
6.055	101.121	97.076	201.803
6.0575	101.127	97.0787	201.794
6.06	101.134	97.0815	201.784
6.0625	101.141	97.0842	201.775
6.065	101.148	97.087	201.765
6.0675	101.154	97.0898	201.756
6.07	101.161	97.0926	201.746
6.0725	101.168	97.0955	201.737
6.075	101.174	97.0983	201.728
6.0775	101.181	97.1012	201.718
6.08	101.187	97.104	201.709
6.0825	101.194	97.1069	201.699
6.085	101.2	97.1098	201.69
6.0875	101.207	97.1127	201.681
6.09	101.213	97.1157	201.671
6.0925	101.219	97.1186	201.662
6.095	101.226	97.1216	201.653
6.0975	101.232	97.1246	201.644
6.1	101.238	97.1276	201.634
6.1025	101.244	97.1306	201.625
6.105	101.25	97.1336	201.616
6.1075	101.257	97.1367	201.607
6.11	101.263	97.1397	201.598
6.1125	101.269	97.1428	201.588
6.115	101.275	97.1459	201.579
6.1175	101.281	97.149	201.57
6.12	101.287	97.1521	201.561
6.1225	101.293	97.1552	201.552
6.125	101.299	97.1584	201.543
6.1275	101.304	97.1616	201.534
6.13	101.31	97.1647	201.525
6.1325	101.316	97.1679	201.516
6.135	101.322	97.1711	201.507
6.1375	101.328	97.1743	201.498
6.14	101.333	97.1776	201.489
6.1425	101.339	97.1808	201.48
6.145	101.345	97.1841	201.471
6.1475	101.35	97.1874	201.463
6.15	101.356	97.1906	201.454
6.1525	101.361	97.1939	201.445
6.155	101.367	97.1973	201.436
6.1575	101.372	97.2006	201.427
6.16	101.378	97.2039	201.418
6.1625	101.383	97.2073	201.41
6.165	101.388	97.2106	201.401
6.1675	101.394	97.214	201.392
6.17	101.399	97.2174	201.384
6.1725	101.404	97.2208	201.375
6.175	101.41	97.2242	201.366
6.1775	101.415	97.2277	201.358
6.18	101.42	97.2311	201.349
6.1825	101.425	97.2346	201.34
6.185	101.43	97.2381	201.332
6.1875	101.435	97.2415	201.323
6.19	101.44	97.245	201.315
6.1925	101.445	97.2485	201.306
6.195	101.45	97.2521	201.298
6.1975	101.455	97.2556	201.289
6.2	101.46	97.2591	201.281
6.2025	101.465	97.2627	201.272
6.205	101.47	97.2663	201.264
6.2075	101.475	97.2698	201.255
6.21	101.479	97.2734	201.247
6.2125	101.484	97.277	201.239
6.215	101.489	97.2807	201.23
6.2175	101.494	97.2843	201.222
6.22	101.498	97.2879	201.214
6.2225	101.503	97.2916	201.205
6.225	101.508	97.2952	201.197
6.2275	101.512	97.2989	201.189
6.23	101.517	97.3026	201.181
6.2325	101.521	97.3063	201.172
6.235	101.526	97.31	201.164
6.2375	101.53	97.3137	201.156
6.24	101.535	97.3174	201.148
6.2425	101.539	97.3212	201.14
6.245	101.543	97.3249	201.132
6.2475	101.548	97.3287	201.124
6.25	101.552	97.3325	201.116
6.2525	101.556	97.3362	201.108
6.255	101.56	97.34	201.099
6.2575	101.565	97.3438	201.091
6.26	101.569	97.3476	201.083
6.2625	101.573	97.3515	201.076
6.265	101.577	97.3553	201.068
6.2675	101.581	97.3591	201.06
6.27	101.585	97.363	201.052
6.2725	101.589	97.3669	201.044
6.275	101.593	97.3707	201.036
6.2775	101.597	97.3746	201.028
6.28	101.601	97.3785	201.02
6.2825	101.605	97.3824	201.012
6.285	101.609	97.3863	201.005
6.2875	101.613	97.3902	200.997
6.29	101.617	97.3942	200.989
6.2925	101.621	97.3981	200.981
6.295	101.624	97.4021	200.974
6.2975	101.628	97.406	200.966
6.3	101.632	97.41	200.958
6.3025	101.635	97.414	200.951
6.305	101.639	97.418	200.943
6.3075	101.643	97.422	200.935
6.31	101.646	97.426	200.928
6.3125	101.65	97.43	200.92
6.315	101.653	97.434	200.913
6.3175	101.657	97.438	200.905
6.32	101.66	97.4421	200.897
6.3225	101.664	97.4461	200.89
6.325	101.667	97.4502	200.882
6.3275	101.671	97.4543	200.875
6.33	101.674	97.4583	200.868
6.3325	101.677	97.4624	200.86
6.335	101.681	97.4665	200.853
6.3375	101.684	97.4706	200.845
6.34	101.687	97.4747	200.838
6.3425	101.691	97.4788	200.831
6.345	101.694	97.4829	200.823
6.3475	101.697	97.4871	200.816
6.35	101.7	97.4912	200.809
6.3525	101.703	97.4954	200.801
6.355	101.706	97.4995	200.794
6.3575	101.709	97.5037	200.787
6.36	101.712	97.5079	200.78
6.3625	101.715	97.512	200.772
6.365	101.718	97.5162	200.765
6.3675	101.721	97.5204	200.758
6.37	101.724	97.5246	200.751
6.3725	101.727	97.5288	200.744
6.375	101.73	97.533	200.737
6.3775	101.733	97.5373	200.73
6.38	101.736	97.5415	200.723
6.3825	101.739	97.5457	200.716
6.385	101.741	97.55	200.709
6.3875	101.744	97.5542	200.702
6.39	101.747	97.5585	200.695
6.3925	101.75	97.5627	200.688
6.395	101.752	97.567	200.681
6.3975	101.755	97.5713	200.674
6.4	101.758	97.5756	200.667
6.4025	101.76	97.5799	200.66
6.405	101.763	97.5842	200.653
6.4075	101.765	97.5885	200.646
6.41	101.768	97.5928	200.639
6.4125	101.77	97.5971	200.633
6.415	101.773	97.6014	200.626
6.4175	101.775	97.6057	200.619
6.42	101.778	97.6101	200.612
6.4225	101.78	97.6144	200.606
6.425	101.782	97.6188	200.599
6.4275	101.785	97.6231	200.592
6.43	101.787	97.6275	200.586
6.4325	101.789	97.6318	200.579
6.435	101.792	97.6362	200.572
6.4375	101.794	97.6406	200.566
6.44	101.796	97.645	200.559
6.4425	101.798	97.6494	200.552
6.445	101.8	97.6537	200.546
6.4475	101.802	97.6581	200.539
6.45	101.805	97.6625	200.533
6.4525	101.807	97.667	200.526
6.455	101.809	97.6714	200.52
6.4575	101.811	97.6758	200.513
6.46	101.813	97.6802	200.507
6.4625	101.815	97.6846	200.501
6.465	101.817	97.6891	200.494
6.4675	101.819	97.6935	200.488
6.47	101.821	97.698	200.481
6.4725	101.823	97.7024	200.475
6.475	101.824	97.7069	200.469
6.4775	101.826	97.7113	200.462
6.48	101.828	97.7158	200.456
6.4825	101.83	97.7203	200.45
6.485	101.832	97.7247	200.444
6.4875	101.833	97.7292	200.437
6.49	101.835	97.7337	200.431
6.4925	101.837	97.7382	200.425
6.495	101.839	97.7427	200.419
6.4975	101.84	97.7472	200.413
6.5	101.842	97.7517	200.406
6.5025	101.843	97.7562	200.4
6.505	101.845	97.7607	200.394
6.5075	101.847	97.7652	200.388
6.51	101.848	97.7697	200.382
6.5125	101.85	97.7742	200.376
6.515	101.851	97.7787	200.37
6.5175	101.853	97.7833	200.364
6.52	101.854	97.7878	200.358
6.5225	101.856	97.7923	200.352
6.525	101.857	97.7969	200.346
6.5275	101.858	97.8014	200.34
6.53	101.86	97.806	200.334
6.5325	101.861	97.8105	200.328
6.535	101.862	97.8151	200.323
6.5375	101.864	97.8196	200.317
6.54	101.865	97.8242	200.311
6.5425	101.866	97.8287	200.305
6.545	101.867	97.8333	200.299
6.5475	101.869	97.8379	200.293
6.55	101.87	97.8424	200.288
6.5525	101.871	97.847	200.282
6.555	101.872	97.8516	200.276
6.5575	101.873	97.8562	200.27
6.56	101.874	97.8608	200.265
6.5625	101.876	97.8654	200.259
6.565	101.877	97.8699	200.253
6.5675	101.878	97.8745	200.248
6.57	101.879	97.8791	200.242
6.5725	101.88	97.8837	200.237
6.575	101.881	97.8883	200.231
6.5775	101.882	97.8929	200.225
6.58	101.883	97.8975	200.22
6.5825	101.883	97.9021	200.214
6.585	101.884	97.9068	200.209
6.5875	101.885	97.9114	200.203
6.59	101.886	97.916	200.198
6.5925	101.887	97.9206	200.193
6.595	101.888	97.9252	200.187
6.5975	101.888	97.9298	200.182
6.6	101.889	97.9345	200.176
6.6025	101.89	97.9391	200.171
6.605	101.891	97.9437	200.166
6.6075	101.891	97.9484	200.16
6.61	101.892	97.953	200.155
6.6125	101.893	97.9576	200.15
6.615	101.893	97.9623	200.144
6.6175	101.894	97.9669	200.139
6.62	101.895	97.9715	200.134
6.6225	101.895	97.9762	200.129
6.625	101.896	97.9808	200.123
6.6275	101.896	97.9855	200.118
6.63	101.897	97.9901	200.113
6.6325	101.897	97.9948	200.108
6.635	101.898	97.9994	200.103
6.6375	101.898	98.0041	200.098
6.64	101.899	98.0087	200.092
6.6425	101.899	98.0134	200.087
6.645	101.9	98.018	200.082
6.6475	101.9	98.0227	200.077
6.65	101.9	98.0273	200.072
6.6525	101.901	98.032	200.067
6.655	101.901	98.0367	200.062
6.6575	101.901	98.0413	200.057
6.66	101.902	98.046	200.052
6.6625	101.902	98.0506	200.047
6.665	101.902	98.0553	200.042
6.6675	101.903	98.06	200.038
6.67	101.903	98.0646	200.033
6.6725	101.903	98.0693	200.028
6.675	101.903	98.074	200.023
6.6775	101.903	98.0786	200.018
6.68	101.903	98.0833	200.013
6.6825	101.904	98.088	200.008
6.685	101.904	98.0926	200.004
6.6875	101.904	98.0973	199.999
6.69	101.904	98.102	199.994
6.6925	101.904	98.1066	199.989
6.695	101.904	98.1113	199.985
6.6975	101.904	98.116	199.98
6.7	101.904	98.1206	199.975
6.7025	101.904	98.1253	199.971
6.705	101.904	98.13	199.966
6.7075	101.904	98.1347	199.961
6.71	101.904	98.1393	199.957
6.7125	101.904	98.144	199.952
6.715	101.904	98.1487	199.948
6.7175	101.904	98.1533	199.943
6.72	101.903	98.158	199.939
6.7225	101.903	98.1627	199.934
6.725	101.903	98.1674	199.93
6.7275	101.903	98.172	199.925
6.73	101.903	98.1767	199.921
6.7325	101.902	98.1814	199.916
6.735	101.902	98.186	199.912
6.7375	101.902	98.1907	199.907
6.74	101.902	98.1954	199.903
6.7425	101.901	98.2	199.899
6.745	101.901	98.2047	199.894
6.7475	101.901	98.2094	199.89
6.75	101.9	98.214	199.885
6.7525	101.9	98.2187	199.881
6.755	101.9	98.2234	199.877
6.7575	101.899	98.228	199.873
6.76	101.899	98.2327	199.868
6.7625	101.899	98.2374	199.864
6.765	101.898	98.242	199.86
6.7675	101.898	98.2467	199.856
6.77	101.897	98.2513	199.851
6.7725	101.897	98.256	199.847
6.775	101.896	98.2607	199.843
6.7775	101.896	98.2653	199.839
6.78	101.895	98.27	199.835
6.7825	101.895	98.2746	199.831
6.785	101.894	98.2793	199.827
6.7875	101.893	98.2839	199.823
6.79	101.893	98.2886	199.819
6.7925	101.892	98.2932	199.814
6.795	101.892	98.2979	199.81
6.7975	101.891	98.3025	199.806
6.8	101.89	98.3072	199.802
6.8025	101.89	98.3118	199.798
6.805	101.889	98.3165	199.794
6.8075	101.888	98.3211	199.791
6.81	101.888	98.3258	199.787
6.8125	101.887	98.3304	199.783
6.815	101.886	98.335	199.779
6.8175	101.885	98.3397	199.775
6.82	101.885	98.3443	199.771
6.8225	101.884	98.3489	199.767
6.825	101.883	98.3536	199.763
6.8275	101.882	98.3582	199.76
6.83	101.881	98.3628	199.756
6.8325	101.881	98.3675	199.752
6.835	101.88	98.3721	199.748
6.8375	101.879	98.3767	199.745
6.84	101.878	98.3813	199.741
6.8425	101.877	98.3859	199.737
6.845	101.876	98.3906	199.733
6.8475	101.875	98.3952	199.73
6.85	101.874	98.3998	199.726
6.8525	101.873	98.4044	199.722
6.855	101.872	98.409	199.719
6.8575	101.871	98.4136	199.715
6.86	101.87	98.4182	199.712
6.8625	101.869	98.4228	199.708
6.865	101.868	98.4274	199.704
6.8675	101.867	98.432	199.701
6.87	101.866	98.4366	199.697
6.8725	101.865	98.4412	199.694
6.875	101.864	98.4458	199.69
6.8775	101.863	98.4504	199.687
6.88	101.862	98.4549	199.683
6.8825	101.861	98.4595	199.68
6.885	101.86	98.4641	199.676
6.8875	101.858	98.4687	199.673
6.89	101.857	98.4733	199.67
6.8925	101.856	98.4778	199.666
6.895	101.855	98.4824	199.663
6.8975	101.854	98.487	199.659
6.9	101.852	98.4915	199.656
6.9025	101.851	98.4961	199.653
6.905	101.85	98.5006	199.649
6.9075	101.849	98.5052	199.646
6.91	101.847	98.5097	199.643
6.9125	101.846	98.5143	199.64
6.915	101.845	98.5188	199.636
6.9175	101.844	98.5234	199.633
6.92	101.842	98.5279	199.63
6.9225	101.841	98.5325	199.627
6.925	101.84	98.537	199.623
6.9275	101.838	98.5415	199.62
6.93	101.837	98.546	199.617
6.9325	101.836	98.5506	199.614
6.935	101.834	98.5551	199.611
6.9375	101.833	98.5596	199.608
6.94	101.831	98.5641	199.605
6.9425	101.83	98.5686	199.601
6.945	101.828	98.5731	199.598
6.9475	101.827	98.5776	199.595
6.95	101.826	98.5821	199.592
6.9525	101.824	98.5866	199.589
6.955	101.823	98.5911	199.586
6.9575	101.821	98.5956	199.583
6.96	101.82	98.6001	199.58
6.9625	101.818	98.6046	199.577
6.965	101.817	98.6091	199.574
6.9675	101.815	98.6136	199.571
6.97	101.813	98.618	199.568
6.9725	101.812	98.6225	199.566
6.975	101.81	98.627	199.563
6.9775	101.809	98.6314	199.56
6.98	101.807	98.6359	199.557
6.9825	101.806	98.6403	199.554
6.985	101.804	98.6448	199.551
6.9875	101.802	98.6492	199.548
6.99	101.801	98.6537	199.546
6.9925	101.799	98.6581	199.543
6.995	101.797	98.6625	199.54
6.9975	101.796	98.667	199.537
7	101.794	98.6714	199.535
7.0025	101.792	98.6758	199.532
7.005	101.791	98.6803	199.529
7.0075	101.789	98.6847	199.526
7.01	101.787	98.6891	199.524
7.0125	101.785	98.6935	199.521
7.015	101.784	98.6979	199.518
7.0175	101.782	98.7023	199.516
7.02	101.78	98.7067	199.513
7.0225	101.778	98.7111	199.51
7.025	101.777	98.7155	199.508
7.0275	101.775	98.7198	199.505
7.03	101.773	98.7242	199.503
7.0325	101.771	98.7286	199.5
7.035	101.769	98.733	199.498
7.0375	101.768	98.7373	199.495
7.04	101.766	98.7417	199.493
7.0425	101.764	98.746	199.49
7.045	101.762	98.7504	199.488
7.0475	101.76	98.7547	199.485
7.05	101.758	98.7591	199.483
7.0525	101.756	98.7634	199.48
7.055	101.754	98.7678	199.478
7.0575	101.753	98.7721	199.475
7.06	101.751	98.7764	199.473
7.0625	101.749	98.7807	199.471
7.065	101.747	98.7851	199.468
7.0675	101.745	98.7894	199.466
7.07	101.743	98.7937	199.463
7.0725	101.741	98.798	199.461
7.075	101.739	98.8023	199.459
7.0775	101.737	98.8066	199.456
7.08	101.735	98.8109	199.454
7.0825	101.733	98.8151	199.452
7.085	101.731	98.8194	199.45
7.0875	101.729	98.8237	199.447
7.09	101.727	98.828	199.445
7.0925	101.725	98.8322	199.443
7.095	101.723	98.8365	199.441
7.0975	101.721	98.8407	199.438
7.1	101.719	98.845	199.436
7.1025	101.717	98.8492	199.434
7.105	101.715	98.8535	199.432
7.1075	101.713	98.8577	199.43
7.11	101.71	98.8619	199.428
7.1125	101.708	98.8662	199.426
7.115	101.706	98.8704	199.423
7.1175	101.704	98.8746	199.421
7.12	101.702	98.8788	199.419
7.1225	101.7	98.883	199.417
7.125	101.698	98.8872	199.415
7.1275	101.696	98.8914	199.413
7.13	101.693	98.8956	199.411
7.1325	101.691	98.8998	199.409
7.135	101.689	98.904	199.407
7.1375	101.687	98.9081	199.405
7.14	101.685	98.9123	199.403
7.1425	101.682	98.9165	199.401
7.145	101.68	98.9206	199.399
7.1475	101.678	98.9248	199.397
7.15	101.676	98.9289	199.395
7.1525	101.674	98.9331	199.393
7.155	101.671	98.9372	199.391
7.1575	101.669	98.9413	199.39
7.16	101.667	98.9455	199.388
7.1625	101.665	98.9496	199.386
7.165	101.662	98.9537	199.384
7.1675	101.66	98.9578	199.382
7.17	101.658	98.9619	199.38
7.1725	101.656	98.966	199.378
7.175	101.653	98.9701	199.377
7.1775	101.651	98.9742	199.375
7.18	101.649	98.9783	199.373
7.1825	101.646	98.9823	199.371
7.185	101.644	98.9864	199.37
7.1875	101.642	98.9905	199.368
7.19	101.639	98.9945	199.366
7.1925	101.637	98.9986	199.364
7.195	101.635	99.0026	199.363
7.1975	101.632	99.0067	199.361
7.2	101.63	99.0107	199.359
7.2025	101.628	99.0148	199.358
7.205	101.625	99.0188	199.356
7.2075	101.623	99.0228	199.354
7.21	101.62	99.0268	199.353
7.2125	101.618	99.0308	199.351
7.215	101.616	99.0348	199.35
7.2175	101.613	99.0388	199.348
7.22	101.611	99.0428	199.346
7.2225	101.608	99.0468	199.345
7.225	101.606	99.0508	199.343
7.2275	101.604	99.0548	199.342
7.23	101.601	99.0587	199.34
7.2325	101.599	99.0627	199.339
7.235	101.596	99.0666	199.337
7.2375	101.594	99.0706	199.336
7.24	101.591	99.0745	199.334
7.2425	101.589	99.0785	199.333
7.245	101.586	99.0824	199.331
7.2475	101.584	99.0863	199.33
7.25	101.581	99.0903	199.328
7.2525	101.579	99.0942	199.327
7.255	101.576	99.0981	199.325
7.2575	101.574	99.102	199.324
7.26	101.571	99.1059	199.323
7.2625	101.569	99.1098	199.321
7.265	101.566	99.1137	199.32
7.2675	101.564	99.1175	199.319
7.27	101.561	99.1214	199.317
7.2725	101.559	99.1253	199.316
7.275	101.556	99.1291	199.314
7.2775	101.554	99.133	199.313
7.28	101.551	99.1368	199.312
7.2825	101.549	99.1407	199.311
7.285	101.546	99.1445	199.309
7.2875	101.544	99.1483	199.308
7.29	101.541	99.1522	199.307
7.2925	101.538	99.156	199.306
7.295	101.536	99.1598	199.304
7.2975	101.533	99.1636	199.303
7.3	101.531	99.1674	199.302
7.3025	101.528	99.1712	199.301
7.305	101.526	99.175	199.299
7.3075	101.523	99.1788	199.298
7.31	101.52	99.1825	199.297
7.3125	101.518	99.1863	199.296
7.315	101.515	99.1901	199.295
7.3175	101.513	99.1938	199.294
7.32	101.51	99.1976	199.293
7.3225	101.507	99.2013	199.291
7.325	101.505	99.205	199.29
7.3275	101.502	99.2088	199.289
7.33	101.499	99.2125	199.288
7.3325	101.497	99.2162	199.287
7.335	101.494	99.2199	199.286
7.3375	101.491	99.2236	199.285
7.34	101.489	99.2273	199.284
7.3425	101.486	99.231	199.283
7.345	101.483	99.2347	199.282
7.3475	101.481	99.2384	199.281
7.35	101.478	99.242	199.28
7.3525	101.475	99.2457	199.279
7.355	101.473	99.2493	199.278
7.3575	101.47	99.253	199.277
7.36	101.467	99.2566	199.276
7.3625	101.465	99.2603	199.275
7.365	101.462	99.2639	199.274
7.3675	101.459	99.2675	199.273
7.37	101.457	99.2712	199.272
7.3725	101.454	99.2748	199.271
7.375	101.451	99.2784	199.27
7.3775	101.449	99.282	199.27
7.38	101.446	99.2856	199.269
7.3825	101.443	99.2891	199.268
7.385	101.44	99.2927	199.267
7.3875	101.438	99.2963	199.266
7.39	101.435	99.2999	199.265
7.3925	101.432	99.3034	199.264
7.395	101.429	99.307	199.264
7.3975	101.427	99.3105	199.263
7.4	101.424	99.3141	199.262
7.4025	101.421	99.3176	199.261
7.405	101.418	99.3211	199.26
7.4075	101.416	99.3246	199.26
7.41	101.413	99.3281	199.259
7.4125	101.41	99.3317	199.258
7.415	101.407	99.3352	199.257
7.4175	101.405	99.3386	199.257
7.42	101.402	99.3421	199.256
7.4225	101.399	99.3456	199.255
7.425	101.396	99.3491	199.255
7.4275	101.394	99.3525	199.254
7.43	101.391	99.356	199.253
7.4325	101.388	99.3595	199.253
7.435	101.385	99.3629	199.252
7.4375	101.382	99.3663	199.251
7.44	101.38	99.3698	199.251
7.4425	101.377	99.3732	199.25
7.445	101.374	99.3766	199.249
7.4475	101.371	99.38	199.249
7.45	101.369	99.3834	199.248
7.4525	101.366	99.3868	199.247
7.455	101.363	99.3902	199.247
7.4575	101.36	99.3936	199.246
7.46	101.357	99.397	199.246
7.4625	101.354	99.4003	199.245
7.465	101.352	99.4037	199.245
7.4675	101.349	99.4071	199.244
7.47	101.346	99.4104	199.244
7.4725	101.343	99.4137	199.243
7.475	101.34	99.4171	199.243
7.4775	101.338	99.4204	199.242
7.48	101.335	99.4237	199.242
7.4825	101.332	99.427	199.241
7.485	101.329	99.4304	199.241
7.4875	101.326	99.4337	199.24
7.49	101.323	99.4369	199.24
7.4925	101.321	99.4402	199.239
7.495	101.318	99.4435	199.239
7.4975	101.315	99.4468	199.238
7.5	101.312	99.4501	199.238
7.5025	101.309	99.4533	199.237
7.505	101.306	99.4566	199.237
7.5075	101.304	99.4598	199.237
7.51	101.301	99.463	199.236
7.5125	101.298	99.4663	199.236
7.515	101.295	99.4695	199.235
7.5175	101.292	99.4727	199.235
7.52	101.289	99.4759	199.235
7.5225	101.286	99.4791	199.234
7.525	101.284	99.4823	199.234
7.5275	101.281	99.4855	199.234
7.53	101.278	99.4887	199.233
7.5325	101.275	99.4919	199.233
7.535	101.272	99.495	199.233
7.5375	101.269	99.4982	199.232
7.54	101.266	99.5014	199.232
7.5425	101.264	99.5045	199.232
7.545	101.261	99.5076	199.232
7.5475	101.258	99.5108	199.231
7.55	101.255	99.5139	199.231
7.5525	101.252	99.517	199.231
7.555	101.249	99.5201	199.231
7.5575	101.246	99.5232	199.23
7.56	101.244	99.5263	199.23
7.5625	101.241	99.5294	199.23
7.565	101.238	99.5325	199.23
7.5675	101.235	99.5356	199.23
7.57	101.232	99.5387	199.229
7.5725	101.229	99.5417	199.229
7.575	101.226	99.5448	199.229
7.5775	101.223	99.5478	199.229
7.58	101.221	99.5509	199.229
7.5825	101.218	99.5539	199.228
7.585	101.215	99.5569	199.228
7.5875	101.212	99.5599	199.228
7.59	101.209	99.563	199.228
7.5925	101.206	99.566	199.228
7.595	101.203	99.569	199.228
7.5975	101.2	99.5719	199.228
7.6	101.197	99.5749	199.228
7.6025	101.195	99.5779	199.228
7.605	101.192	99.5809	199.227
7.6075	101.189	99.5838	199.227
7.61	101.186	99.5868	199.227
7.6125	101.183	99.5897	199.227
7.615	101.18	99.5927	199.227
7.6175	101.177	99.5956	199.227
7.62	101.174	99.5986	199.227
7.6225	101.171	99.6015	199.227
7.625	101.169	99.6044	199.227
7.6275	101.166	99.6073	199.227
7.63	101.163	99.6102	199.227
7.6325	101.16	99.6131	199.227
7.635	101.157	99.616	199.227
7.6375	101.154	99.6188	199.227
7.64	101.151	99.6217	199.227
7.6425	101.148	99.6246	199.227
7.645	101.145	99.6274	199.227
7.6475	101.143	99.6303	199.227
7.65	101.14	99.6331	199.227
7.6525	101.137	99.636	199.227
7.655	101.134	99.6388	199.227
7.6575	101.131	99.6416	199.227
7.66	101.128	99.6444	199.227
7.6625	101.125	99.6472	199.227
7.665	101.122	99.65	199.228
7.6675	101.12	99.6528	199.228
7.67	101.117	99.6556	199.228
7.6725	101.114	99.6584	199.228
7.675	101.111	99.6612	199.228
7.6775	101.108	99.6639	199.228
7.68	101.105	99.6667	199.228
7.6825	101.102	99.6694	199.228
7.685	101.099	99.6722	199.229
7.6875	101.096	99.6749	199.229
7.69	101.094	99.6776	199.229
7.6925	101.091	99.6804	199.229
7.695	101.088	99.6831	199.229
7.6975	101.085	99.6858	199.229
7.7	101.082	99.6885	199.229
7.7025	101.079	99.6912	199.23
7.705	101.076	99.6939	199.23
7.7075	101.073	99.6965	199.23
7.71	101.071	99.6992	199.23
7.7125	101.068	99.7019	199.23
7.715	101.065	99.7045	199.231
7.7175	101.062	99.7072	199.231
7.72	101.059	99.7098	199.231
7.7225	101.056	99.7125	199.231
7.725	101.053	99.7151	199.232
7.7275	101.05	99.7177	199.232
7.73	101.047	99.7203	199.232
7.7325	101.045	99.7229	199.232
7.735	101.042	99.7255	199.233
7.7375	101.039	99.7281	199.233
7.74	101.036	99.7307	199.233
7.7425	101.033	99.7333	199.234
7.745	101.03	99.7359	199.234
7.7475	101.027	99.7384	199.234
7.75	101.025	99.741	199.234
7.7525	101.022	99.7435	199.235
7.755	101.019	99.7461	199.235
7.7575	101.016	99.7486	199.235
7.76	101.013	99.7512	199.236
7.7625	101.01	99.7537	199.236
7.765	101.007	99.7562	199.236
7.7675	101.005	99.7587	199.237
7.77	101.002	99.7612	199.237
7.7725	100.999	99.7637	199.237
7.775	100.996	99.7662	199.238
7.7775	100.993	99.7687	199.238
7.78	100.99	99.7711	199.239
7.7825	100.987	99.7736	199.239
7.785	100.985	99.7761	199.239
7.7875	100.982	99.7785	199.24
7.79	100.979	99.781	199.24
7.7925	100.976	99.7834	199.241
7.795	100.973	99.7858	199.241
7.7975	100.97	99.7883	199.241
7.8	100.968	99.7907	199.242
7.8025	100.965	99.7931	199.242
7.805	100.962	99.7955	199.243
7.8075	100.959	99.7979	199.243
7.81	100.956	99.8003	199.244
7.8125	100.953	99.8027	199.244
7.815	100.951	99.805	199.244
7.8175	100.948	99.8074	199.245
7.82	100.945	99.8098	199.245
7.8225	100.942	99.8121	199.246
7.825	100.939	99.8145	199.246
7.8275	100.936	99.8168	199.247
7.83	100.934	99.8191	199.247
7.8325	100.931	99.8215	199.248
7.835	100.928	99.8238	199.248
7.8375	100.925	99.8261	199.249
7.84	100.922	99.8284	199.249
7.8425	100.92	99.8307	199.25
7.845	100.917	99.833	199.25
7.8475	100.914	99.8353	199.251
7.85	100.911	99.8376	199.251
7.8525	100.908	99.8398	199.252
7.855	100.905	99.8421	199.252
7.8575	100.903	99.8443	199.253
7.86	100.9	99.8466	199.254
7.8625	100.897	99.8488	199.254
7.865	100.894	99.8511	199.255
7.8675	100.892	99.8533	199.255
7.87	100.889	99.8555	199.256
7.8725	100.886	99.8577	199.256
7.875	100.883	99.8599	199.257
7.8775	100.88	99.8621	199.257
7.88	100.878	99.8643	199.258
7.8825	100.875	99.8665	199.259
7.885	100.872	99.8687	199.259
7.8875	100.869	99.8709	199.26
7.89	100.866	99.8731	199.26
7.8925	100.864	99.8752	199.261
7.895	100.861	99.8774	199.262
7.8975	100.858	99.8795	199.262
7.9	100.855	99.8817	199.263
7.9025	100.853	99.8838	199.264
7.905	100.85	99.8859	199.264
7.9075	100.847	99.888	199.265
7.91	100.844	99.8901	199.265
7.9125	100.842	99.8922	199.266
7.915	100.839	99.8943	199.267
7.9175	100.836	99.8964	199.267
7.92	100.833	99.8985	199.268
7.9225	100.831	99.9006	199.269
7.925	100.828	99.9027	199.269
7.9275	100.825	99.9047	199.27
7.93	100.822	99.9068	199.271
7.9325	100.82	99.9088	199.271
7.935	100.817	99.9109	199.272
7.9375	100.814	99.9129	199.273
7.94	100.812	99.915	199.274
7.9425	100.809	99.917	199.274
7.945	100.806	99.919	199.275
7.9475	100.803	99.921	199.276
7.95	100.801	99.923	199.276
7.9525	100.798	99.925	199.277
7.955	100.795	99.927	199.278
7.9575	100.793	99.929	199.278
7.96	100.79	99.931	199.279
7.9625	100.787	99.9329	199.28
7.965	100.784	99.9349	199.281
7.9675	100.782	99.9368	199.281
7.97	100.779	99.9388	199.282
7.9725	100.776	99.9407	199.283
7.975	100.774	99.9427	199.284
7.9775	100.771	99.9446	199.284
7.98	100.768	99.9465	199.285
7.9825	100.766	99.9484	199.286
7.985	100.763	99.9504	199.287
7.9875	100.76	99.9523	199.287
7.99	100.758	99.9542	199.288
7.9925	100.755	99.956	199.289
7.995	100.752	99.9579	199.29
7.9975	100.75	99.9598	199.291
8	100.747	99.9617	199.291
8.0025	100.744	99.9635	199.292
8.005	100.742	99.9654	199.293
8.0075	100.739	99.9672	199.294
8.01	100.736	99.9691	199.295
8.0125	100.734	99.9709	199.295
8.015	100.731	99.9728	199.296
8.0175	100.728	99.9746	199.297
8.02	100.726	99.9764	199.298
8.0225	100.723	99.9782	199.299
8.025	100.721	99.98	199.299
8.0275	100.718	99.9818	199.3
8.03	100.715	99.9836	199.301
8.0325	100.713	99.9854	199.302
8.035	100.71	99.9872	199.303
8.0375	100.707	99.9889	199.304
8.04	100.705	99.9907	199.304
8.0425	100.702	99.9925	199.305
8.045	100.7	99.9942	199.306
8.0475	100.697	99.996	199.307
8.05	100.694	99.9977	199.308
8.0525	100.692	99.9994	199.309
8.055	100.689	100.001	199.31
8.0575	100.687	100.003	199.31
8.06	100.684	100.005	199.311
8.0625	100.682	100.006	199.312
8.065	100.679	100.008	199.313
8.0675	100.676	100.01	199.314
8.07	100.674	100.011	199.315
8.0725	100.671	100.013	199.316
8.075	100.669	100.015	199.317
8.0775	100.666	100.016	199.318
8.08	100.664	100.018	199.318
8.0825	100.661	100.02	199.319
8.085	100.658	100.021	199.32
8.0875	100.656	100.023	199.321
8.09	100.653	100.025	199.322
8.0925	100.651	100.026	199.323
8.095	100.648	100.028	199.324
8.0975	100.646	100.03	199.325
8.1	100.643	100.031	199.326
8.1025	100.641	100.033	199.327
8.105	100.638	100.034	199.328
8.1075	100.636	100.036	199.328
8.11	100.633	100.038	199.329
8.1125	100.631	100.039	199.33
8.115	100.628	100.041	199.331
8.1175	100.626	100.042	199.332
8.12	100.623	100.044	199.333
8.1225	100.621	100.045	199.334
8.125	100.618	100.047	199.335
8.1275	100.616	100.048	199.336
8.13	100.613	100.05	199.337
8.1325	100.611	100.052	199.338
8.135	100.608	100.053	199.339
8.1375	100.606	100.055	199.34
8.14	100.603	100.056	199.341
8.1425	100.601	100.058	199.342
8.145	100.598	100.059	199.343
8.1475	100.596	100.061	199.344
8.15	100.593	100.062	199.345
8.1525	100.591	100.064	199.346
8.155	100.588	100.065	199.347
8.1575	100.586	100.066	199.348
8.16	100.583	100.068	199.349
8.1625	100.581	100.069	199.35
8.165	100.579	100.071	199.351
8.1675	100.576	100.072	199.352
8.17	100.574	100.074	199.353
8.1725	100.571	100.075	199.354
8.175	100.569	100.077	199.355
8.1775	100.566	100.078	199.356
8.18	100.564	100.079	199.357
8.1825	100.562	100.081	199.358
8.185	100.559	100.082	199.359
8.1875	100.557	100.084	199.36
8.19	100.554	100.085	199.361
8.1925	100.552	100.086	199.362
8.195	100.55	100.088	199.363
8.1975	100.547	100.089	199.364
8.2	100.545	100.091	199.365
8.2025	100.542	100.092	199.366
8.205	100.54	100.093	199.367
8.2075	100.538	100.095	199.368
8.21	100.535	100.096	199.369
8.2125	100.533	100.097	199.37
8.215	100.531	100.099	199.371
8.2175	100.528	100.1	199.372
8.22	100.526	100.101	199.373
8.2225	100.524	100.103	199.374
8.225	100.521	100.104	199.375
8.2275	100.519	100.105	199.376
8.23	100.517	100.106	199.377
8.2325	100.514	100.108	199.378
8.235	100.512	100.109	199.379
8.2375	100.51	100.11	199.38
8.24	100.507	100.112	199.381
8.2425	100.505	100.113	199.382
8.245	100.503	100.114	199.383
8.2475	100.5	100.115	199.384
8.25	100.498	100.117	199.385
8.2525	100.496	100.118	199.386
8.255	100.493	100.119	199.388
8.2575	100.491	100.12	199.389
8.26	100.489	100.122	199.39
8.2625	100.486	100.123	199.391
8.265	100.484	100.124	199.392
8.2675	100.482	100.125	199.393
8.27	100.48	100.126	199.394
8.2725	100.477	100.128	199.395
8.275	100.475	100.129	199.396
8.2775	100.473	100.13	199.397
8.28	100.471	100.131	199.398
8.2825	100.468	100.132	199.399
8.285	100.466	100.134	199.4
8.2875	100.464	100.135	199.402
8.29	100.462	100.136	199.403
8.2925	100.459	100.137	199.404
8.295	100.457	100.138	199.405
8.2975	100.455	100.139	199.406
8.3	100.453	100.14	199.407
8.3025	100.45	100.142	199.408
8.305	100.448	100.143	199.409
8.3075	100.446	100.144	199.41
8.31	100.444	100.145	199.411
8.3125	100.442	100.146	199.412
8.315	100.439	100.147	199.414
8.3175	100.437	100.148	199.415
8.32	100.435	100.149	199.416
8.3225	100.433	100.15	199.417
8.325	100.431	100.151	199.418
8.3275	100.428	100.153	199.419
8.33	100.426	100.154	199.42
8.3325	100.424	100.155	199.421
8.335	100.422	100.156	199.422
8.3375	100.42	100.157	199.423
8.34	100.418	100.158	199.425
8.3425	100.415	100.159	199.426
8.345	100.413	100.16	199.427
8.3475	100.411	100.161	199.428
8.35	100.409	100.162	199.429
8.3525	100.407	100.163	199.43
8.355	100.405	100.164	199.431
8.3575	100.403	100.165	199.432
8.36	100.4	100.166	199.434
8.3625	100.398	100.167	199.435
8.365	100.396	100.168	199.436
8.3675	100.394	100.169	199.437
8.37	100.392	100.17	199.438
8.3725	100.39	100.171	199.439
8.375	100.388	100.172	199.44
8.3775	100.386	100.173	199.441
8.38	100.384	100.174	199.443
8.3825	100.381	100.175	199.444
8.385	100.379	100.176	199.445
8.3875	100.377	100.177	199.446
8.39	100.375	100.178	199.447
8.3925	100.373	100.179	199.448
8.395	100.371	100.18	199.449
8.3975	100.369	100.18	199.451
8.4	100.367	100.181	199.452
8.4025	100.365	100.182	199.453
8.405	100.363	100.183	199.454
8.4075	100.361	100.184	199.455
8.41	100.359	100.185	199.456
8.4125	100.357	100.186	199.457
8.415	100.355	100.187	199.459
8.4175	100.353	100.188	199.46
8.42	100.351	100.189	199.461
8.4225	100.349	100.189	199.462
8.425	100.347	100.19	199.463
8.4275	100.345	100.191	199.464
8.43	100.343	100.192	199.465
8.4325	100.341	100.193	199.467
8.435	100.339	100.194	199.468
8.4375	100.337	100.195	199.469
8.44	100.335	100.195	199.47
8.4425	100.333	100.196	199.471
8.445	100.331	100.197	199.472
8.4475	100.329	100.198	199.473
8.45	100.327	100.199	199.475
8.4525	100.325	100.2	199.476
8.455	100.323	100.2	199.477
8.4575	100.321	100.201	199.478
8.46	100.319	100.202	199.479
8.4625	100.317	100.203	199.48
8.465	100.315	100.204	199.482
8.4675	100.313	100.204	199.483
8.47	100.311	100.205	199.484
8.4725	100.309	100.206	199.485
8.475	100.307	100.207	199.486
8.4775	100.305	100.207	199.487
8.48	100.303	100.208	199.488
8.4825	100.301	100.209	199.49
8.485	100.299	100.21	199.491
8.4875	100.298	100.21	199.492
8.49	100.296	100.211	199.493
8.4925	100.294	100.212	199.494
8.495	100.292	100.213	199.495
8.4975	100.29	100.213	199.497
8.5	100.288	100.214	199.498
8.5025	100.286	100.215	199.499
8.505	100.284	100.216	199.5
8.5075	100.282	100.216	199.501
8.51	100.281	100.217	199.502
8.5125	100.279	100.218	199.504
8.515	100.277	100.218	199.505
8.5175	100.275	100.219	199.506
8.52	100.273	100.22	199.507
8.5225	100.271	100.22	199.508
8.525	100.269	100.221	199.509
8.5275	100.268	100.222	199.511
8.53	100.266	100.222	199.512
8.5325	100.264	100.223	199.513
8.535	100.262	100.224	199.514
8.5375	100.26	100.224	199.515
8.54	100.258	100.225	199.516
8.5425	100.257	100.226	199.518
8.545	100.255	100.226	199.519
8.5475	100.253	100.227	199.52
8.55	100.251	100.228	199.521
8.5525	100.249	100.228	199.522
8.555	100.248	100.229	199.523
8.5575	100.246	100.23	199.525
8.56	100.244	100.23	199.526
8.5625	100.242	100.231	199.527
8.565	100.241	100.231	199.528
8.5675	100.239	100.232	199.529
8.57	100.237	100.233	199.53
8.5725	100.235	100.233	199.532
8.575	100.234	100.234	199.533
8.5775	100.232	100.234	199.534
8.58	100.23	100.235	199.535
8.5825	100.228	100.235	199.536
8.585	100.227	100.236	199.537
8.5875	100.225	100.237	199.539
8.59	100.223	100.237	199.54
8.5925	100.221	100.238	199.541
8.595	100.22	100.238	199.542
8.5975	100.218	100.239	199.543
8.6	100.216	100.239	199.544
8.6025	100.214	100.24	199.546
8.605	100.213	100.24	199.547
8.6075	100.211	100.241	199.548
8.61	100.209	100.241	199.549
8.6125	100.208	100.242	199.55
8.615	100.206	100.243	199.551
8.6175	100.204	100.243	199.553
8.62	100.203	100.244	199.554
8.6225	100.201	100.244	199.555
8.625	100.199	100.245	199.556
8.6275	100.198	100.245	199.557
8.63	100.196	100.246	199.558
8.6325	100.194	100.246	199.56
8.635	100.193	100.247	199.561
8.6375	100.191	100.247	199.562
8.64	100.189	100.247	199.563
8.6425	100.188	100.248	199.564
8.645	100.186	100.248	199.565
8.6475	100.184	100.249	199.567
8.65	100.183	100.249	199.568
8.6525	100.181	100.25	199.569
8.655	100.18	100.25	199.57
8.6575	100.178	100.251	199.571
8.66	100.176	100.251	199.572
8.6625	100.175	100.252	199.574
8.665	100.173	100.252	199.575
8.6675	100.172	100.252	199.576
8.67	100.17	100.253	199.577
8.6725	100.168	100.253	199.578
8.675	100.167	100.254	199.579
8.6775	100.165	100.254	199.581
8.68	100.164	100.255	199.582
8.6825	100.162	100.255	199.583
8.685	100.161	100.255	199.584
8.6875	100.159	100.256	199.585
8.69	100.157	100.256	199.586
8.6925	100.156	100.257	199.588
8.695	100.154	100.257	199.589
8.6975	100.153	100.257	199.59
8.7	100.151	100.258	199.591
8.7025	100.15	100.258	199.592
8.705	100.148	100.258	199.593
8.7075	100.147	100.259	199.594
8.71	100.145	100.259	199.596
8.7125	100.144	100.26	199.597
8.715	100.142	100.26	199.598
8.7175	100.141	100.26	199.599
8.72	100.139	100.261	199.6
8.7225	100.138	100.261	199.601
8.725	100.136	100.261	199.602
8.7275	100.135	100.262	199.604
8.73	100.133	100.262	199.605
8.7325	100.132	100.262	199.606
8.735	100.13	100.263	199.607
8.7375	100.129	100.263	199.608
8.74	100.127	100.263	199.609
8.7425	100.126	100.264	199.611
8.745	100.124	100.264	199.612
8.7475	100.123	100.264	199.613
8.75	100.121	100.265	199.614
8.7525	100.12	100.265	199.615
8.755	100.119	100.265	199.616
8.7575	100.117	100.265	199.617
8.76	100.116	100.266	199.619
8.7625	100.114	100.266	199.62
8.765	100.113	100.266	199.621
8.7675	100.111	100.267	199.622
8.77	100.11	100.267	199.623
8.7725	100.109	100.267	199.624
8.775	100.107	100.267	199.625
8.7775	100.106	100.268	199.627
8.78	100.104	100.268	199.628
8.7825	100.103	100.268	199.629
8.785	100.102	100.268	199.63
8.7875	100.1	100.269	199.631
8.79	100.099	100.269	199.632
8.7925	100.097	100.269	199.633
8.795	100.096	100.269	199.634
8.7975	100.095	100.27	199.636
8.8	100.093	100.27	199.637
8.8025	100.092	100.27	199.638
8.805	100.091	100.27	199.639
8.8075	100.089	100.271	199.64
8.81	100.088	100.271	199.641
8.8125	100.087	100.271	199.642
8.815	100.085	100.271	199.643
8.8175	100.084	100.271	199.645
8.82	100.083	100.272	199.646
8.8225	100.081	100.272	199.647
8.825	100.08	100.272	199.648
8.8275	100.079	100.272	199.649
8.83	100.077	100.273	199.65
8.8325	100.076	100.273	199.651
8.835	100.075	100.273	199.652
8.8375	100.073	100.273	199.654
8.84	100.072	100.273	199.655
8.8425	100.071	100.273	199.656
8.845	100.07	100.274	199.657
8.8475	100.068	100.274	199.658
8.85	100.067	100.274	199.659
8.8525	100.066	100.274	199.66
8.855	100.064	100.274	199.661
8.8575	100.063	100.274	199.662
8.86	100.062	100.275	199.664
8.8625	100.061	100.275	199.665
8.865	100.059	100.275	199.666
8.8675	100.058	100.275	199.667
8.87	100.057	100.275	199.668
8.8725	100.056	100.275	199.669
8.875	100.054	100.275	199.67
8.8775	100.053	100.276	199.671
8.88	100.052	100.276	199.672
8.8825	100.051	100.276	199.673
8.885	100.049	100.276	199.675
8.8875	100.048	100.276	199.676
8.89	100.047	100.276	199.677
8.8925	100.046	100.276	199.678
8.895	100.045	100.276	199.679
8.8975	100.043	100.277	199.68
8.9	100.042	100.277	199.681
8.9025	100.041	100.277	199.682
8.905	100.04	100.277	199.683
8.9075	100.039	100.277	199.684
8.91	100.037	100.277	199.685
8.9125	100.036	100.277	199.687
8.915	100.035	100.277	199.688
8.9175	100.034	100.277	199.689
8.92	100.033	100.277	199.69
8.9225	100.032	100.278	199.691
8.925	100.03	100.278	199.692
8.9275	100.029	100.278	199.693
8.93	100.028	100.278	199.694
8.9325	100.027	100.278	199.695
8.935	100.026	100.278	199.696
8.9375	100.025	100.278	199.697
8.94	100.024	100.278	199.698
8.9425	100.022	100.278	199.699
8.945	100.021	100.278	199.701
8.9475	100.02	100.278	199.702
8.95	100.019	100.278	199.703
8.9525	100.018	100.278	199.704
8.955	100.017	100.278	199.705
8.9575	100.016	100.278	199.706
8.96	100.015	100.278	199.707
8.9625	100.014	100.278	199.708
8.965	100.012	100.278	199.709
8.9675	100.011	100.278	199.71
8.97	100.01	100.278	199.711
8.9725	100.009	100.279	199.712
8.975	100.008	100.279	199.713
8.9775	100.007	100.279	199.714
8.98	100.006	100.279	199.715
8.9825	100.005	100.279	199.716
8.985	100.004	100.279	199.718
8.9875	100.003	100.279	199.719
8.99	100.002	100.279	199.72
8.9925	100.001	100.279	199.721
8.995	99.9997	100.279	199.722
8.9975	99.9986	100.279	199.723
9	99.9976	100.279	199.724
9.0025	99.9966	100.279	199.725
9.005	99.9955	100.279	199.726
9.0075	99.9945	100.279	199.727
9.01	99.9935	100.279	199.728
9.0125	99.9925	100.279	199.729
9.015	99.9914	100.279	199.73
9.0175	99.9904	100.279	199.731
9.02	99.9894	100.278	199.732
9.0225	99.9884	100.278	199.733
9.025	99.9874	100.278	199.734
9.0275	99.9864	100.278	199.735
9.03	99.9854	100.278	199.736
9.0325	99.9845	100.278	199.737
9.035	99.9835	100.278	199.738
9.0375	99.9825	100.278	199.739
9.04	99.9815	100.278	199.74
9.0425	99.9805	100.278	199.741
9.045	99.9796	100.278	199.742
9.0475	99.9786	100.278	199.743
9.05	99.9776	100.278	199.744
9.0525	99.9767	100.278	199.745
9.055	99.9757	100.278	199.746
9.0575	99.9748	100.278	199.747
9.06	99.9738	100.278	199.748
9.0625	99.9729	100.278	199.749
9.065	99.972	100.278	199.75
9.0675	99.971	100.278	199.751
9.07	99.9701	100.277	199.752
9.0725	99.9692	100.277	199.753
9.075	99.9683	100.277	199.754
9.0775	99.9673	100.277	199.755
9.08	99.9664	100.277	199.756
9.0825	99.9655	100.277	199.757
9.085	99.9646	100.277	199.758
9.0875	99.9637	100.277	199.759
9.09	99.9628	100.277	199.76
9.0925	99.9619	100.277	199.761
9.095	99.961	100.277	199.762
9.0975	99.9601	100.277	199.763
9.1	99.9592	100.276	199.764
9.1025	99.9584	100.276	199.765
9.105	99.9575	100.276	199.766
9.1075	99.9566	100.276	199.767
9.11	99.9557	100.276	199.768
9.1125	99.9549	100.276	199.769
9.115	99.954	100.276	199.77
9.1175	99.9531	100.276	199.771
9.12	99.9523	100.276	199.772
9.1225	99.9514	100.275	199.773
9.125	99.9506	100.275	199.774
9.1275	99.9497	100.275	199.775
9.13	99.9489	100.275	199.776
9.1325	99.9481	100.275	199.777
9.135	99.9472	100.275	199.778
9.1375	99.9464	100.275	199.779
9.14	99.9456	100.274	199.78
9.1425	99.9447	100.274	199.781
9.145	99.9439	100.274	199.782
9.1475	99.9431	100.274	199.783
9.15	99.9423	100.274	199.784
9.1525	99.9415	100.274	199.785
9.155	99.9407	100.274	199.786
9.1575	99.9399	100.273	199.787
9.16	99.9391	100.273	199.788
9.1625	99.9383	100.273	199.789
9.165	99.9375	100.273	199.789
9.1675	99.9367	100.273	199.79
9.17	99.9359	100.273	199.791
9.1725	99.9351	100.273	199.792
9.175	99.9344	100.272	199.793
9.1775	99.9336	100.272	199.794
9.18	99.9328	100.272	199.795
9.1825	99.9321	100.272	199.796
9.185	99.9313	100.272	199.797
9.1875	99.9305	100.272	199.798
9.19	99.9298	100.271	199.799
9.1925	99.929	100.271	199.8
9.195	99.9283	100.271	199.801
9.1975	99.9275	100.271	199.802
9.2	99.9268	100.271	199.803
9.2025	99.9261	100.27	199.803
9.205	99.9253	100.27	199.804
9.2075	99.9246	100.27	199.805
9.21	99.9239	100.27	199.806
9.2125	99.9231	100.27	199.807
9.215	99.9224	100.27	199.808
9.2175	99.9217	100.269	199.809
9.22	99.921	100.269	199.81
9.2225	99.9203	100.269	199.811
9.225	99.9196	100.269	199.812
9.2275	99.9189	100.269	199.813
9.23	99.9182	100.268	199.814
9.2325	99.9175	100.268	199.814
9.235	99.9168	100.268	199.815
9.2375	99.9161	100.268	199.816
9.24	99.9154	100.267	199.817
9.2425	99.9147	100.267	199.818
9.245	99.914	100.267	199.819
9.2475	99.9134	100.267	199.82
9.25	99.9127	100.267	199.821
9.2525	99.912	100.266	199.822
9.255	99.9113	100.266	199.822
9.2575	99.9107	100.266	199.823
9.26	99.91	100.266	199.824
9.2625	99.9094	100.265	199.825
9.265	99.9087	100.265	199.826
9.2675	99.9081	100.265	199.827
9.27	99.9074	100.265	199.828
9.2725	99.9068	100.265	199.829
9.275	99.9061	100.264	199.83
9.2775	99.9055	100.264	199.83
9.28	99.9049	100.264	199.831
9.2825	99.9042	100.264	199.832
9.285	99.9036	100.263	199.833
9.2875	99.903	100.263	199.834
9.29	99.9024	100.263	199.835
9.2925	99.9017	100.263	199.836
9.295	99.9011	100.262	199.836
9.2975	99.9005	100.262	199.837
9.3	99.8999	100.262	199.838
9.3025	99.8993	100.262	199.839
9.305	99.8987	100.261	199.84
9.3075	99.8981	100.261	199.841
9.31	99.8975	100.261	199.842
9.3125	99.8969	100.261	199.842
9.315	99.8963	100.26	199.843
9.3175	99.8957	100.26	199.844
9.32	99.8952	100.26	199.845
9.3225	99.8946	100.26	199.846
9.325	99.894	100.259	199.847
9.3275	99.8934	100.259	199.848
9.33	99.8929	100.259	199.848
9.3325	99.8923	100.259	199.849
9.335	99.8917	100.258	199.85
9.3375	99.8912	100.258	199.851
9.34	99.8906	100.258	199.852
9.3425	99.8901	100.257	199.853
9.345	99.8895	100.257	199.853
9.3475	99.889	100.257	199.854
9.35	99.8884	100.257	199.855
9.3525	99.8879	100.256	199.856
9.355	99.8873	100.256	199.857
9.3575	99.8868	100.256	199.857
9.36	99.8863	100.255	199.858
9.3625	99.8857	100.255	199.859
9.365	99.8852	100.255	199.86
9.3675	99.8847	100.255	199.861
9.37	99.8842	100.254	199.862
9.3725	99.8837	100.254	199.862
9.375	99.8831	100.254	199.863
9.3775	99.8826	100.253	199.864
9.38	99.8821	100.253	199.865
9.3825	99.8816	100.253	199.866
9.385	99.8811	100.253	199.866
9.3875	99.8806	100.252	199.867
9.39	99.8801	100.252	199.868
9.3925	99.8796	100.252	199.869
9.395	99.8791	100.251	199.87
9.3975	99.8787	100.251	199.87
9.4	99.8782	100.251	199.871
9.4025	99.8777	100.25	199.872
9.405	99.8772	100.25	199.873
9.4075	99.8767	100.25	199.873
9.41	99.8763	100.25	199.874
9.4125	99.8758	100.249	199.875
9.415	99.8753	100.249	199.876
9.4175	99.8749	100.249	199.877
9.42	99.8744	100.248	199.877
9.4225	99.8739	100.248	199.878
9.425	99.8735	100.248	199.879
9.4275	99.873	100.247	199.88
9.43	99.8726	100.247	199.88
9.4325	99.8721	100.247	199.881
9.435	99.8717	100.246	199.882
9.4375	99.8713	100.246	199.883
9.44	99.8708	100.246	199.883
9.4425	99.8704	100.245	199.884
9.445	99.87	100.245	199.885
9.4475	99.8695	100.245	199.886
9.45	99.8691	100.244	199.886
9.4525	99.8687	100.244	199.887
9.455	99.8683	100.244	199.888
9.4575	99.8678	100.243	199.889
9.46	99.8674	100.243	199.889
9.4625	99.867	100.243	199.89
9.465	99.8666	100.242	199.891
9.4675	99.8662	100.242	199.892
9.47	99.8658	100.242	199.892
9.4725	99.8654	100.241	199.893
9.475	99.865	100.241	199.894
9.4775	99.8646	100.241	199.895
9.48	99.8642	100.24	199.895
9.4825	99.8638	100.24	199.896
9.485	99.8634	100.24	199.897
9.4875	99.863	100.239	199.898
9.49	99.8627	100.239	199.898
9.4925	99.8623	100.239	199.899
9.495	99.8619	100.238	199.9
9.4975	99.8615	100.238	199.9
9.5	99.8612	100.238	199.901
9.5025	99.8608	100.237	199.902
9.505	99.8604	100.237	199.903
9.5075	99.8601	100.237	199.903
9.51	99.8597	100.236	199.904
9.5125	99.8593	100.236	199.905
9.515	99.859	100.236	199.905
9.5175	99.8586	100.235	199.906
9.52	99.8583	100.235	199.907
9.5225	99.8579	100.234	199.908
9.525	99.8576	100.234	199.908
9.5275	99.8573	100.234	199.909
9.53	99.8569	100.233	199.91
9.5325	99.8566	100.233	199.91
9.535	99.8562	100.233	199.911
9.5375	99.8559	100.232	199.912
9.54	99.8556	100.232	199.912
9.5425	99.8553	100.232	199.913
9.545	99.8549	100.231	199.914
9.5475	99.8546	100.231	199.915
9.55	99.8543	100.231	199.915
9.5525	99.854	100.23	199.916
9.555	99.8537	100.23	199.917
9.5575	99.8534	100.229	199.917
9.56	99.853	100.229	199.918
9.5625	99.8527	100.229	199.919
9.565	99.8524	100.228	199.919
9.5675	99.8521	100.228	199.92
9.57	99.8518	100.228	199.921
9.5725	99.8515	100.227	199.921
9.575	99.8513	100.227	199.922
9.5775	99.851	100.226	199.923
9.58	99.8507	100.226	199.923
9.5825	99.8504	100.226	199.924
9.585	99.8501	100.225	199.925
9.5875	99.8498	100.225	199.925
9.59	99.8495	100.225	199.926
9.5925	99.8493	100.224	199.927
9.595	99.849	100.224	199.927
9.5975	99.8487	100.223	199.928
9.6	99.8485	100.223	199.928
9.6025	99.8482	100.223	199.929
9.605	99.8479	100.222	199.93
9.6075	99.8477	100.222	199.93
9.61	99.8474	100.222	199.931
9.6125	99.8471	100.221	199.932
9.615	99.8469	100.221	199.932
9.6175	99.8466	100.22	199.933
9.62	99.8464	100.22	199.934
9.6225	99.8461	100.22	199.934
9.625	99.8459	100.219	199.935
9.6275	99.8457	100.219	199.936
9.63	99.8454	100.218	199.936
9.6325	99.8452	100.218	199.937
9.635	99.8449	100.218	199.937
9.6375	99.8447	100.217	199.938
9.64	99.8445	100.217	199.939
9.6425	99.8443	100.217	199.939
9.645	99.844	100.216	199.94
9.6475	99.8438	100.216	199.94
9.65	99.8436	100.215	199.941
9.6525	99.8434	100.215	199.942
9.655	99.8432	100.215	199.942
9.6575	99.8429	100.214	199.943
9.66	99.8427	100.214	199.944
9.6625	99.8425	100.213	199.944
9.665	99.8423	100.213	199.945
9.6675	99.8421	100.213	199.945
9.67	99.8419	100.212	199.946
9.6725	99.8417	100.212	199.947
9.675	99.8415	100.211	199.947
9.6775	99.8413	100.211	199.948
9.68	99.8411	100.211	199.948
9.6825	99.8409	100.21	199.949
9.685	99.8407	100.21	199.949
9.6875	99.8405	100.209	199.95
9.69	99.8404	100.209	199.951
9.6925	99.8402	100.209	199.951
9.695	99.84	100.208	199.952
9.6975	99.8398	100.208	199.952
9.7	99.8396	100.207	199.953
9.7025	99.8395	100.207	199.954
9.705	99.8393	100.207	199.954
9.7075	99.8391	100.206	199.955
9.71	99.8389	100.206	199.955
9.7125	99.8388	100.205	199.956
9.715	99.8386	100.205	199.956
9.7175	99.8385	100.205	199.957
9.72	99.8383	100.204	199.958
9.7225	99.8381	100.204	199.958
9.725	99.838	100.203	199.959
9.7275	99.8378	100.203	199.959
9.73	99.8377	100.203	199.96
9.7325	99.8375	100.202	199.96
9.735	99.8374	100.202	199.961
9.7375	99.8372	100.201	199.961
9.74	99.8371	100.201	199.962
9.7425	99.837	100.201	199.963
9.745	99.8368	100.2	199.963
9.7475	99.8367	100.2	199.964
9.75	99.8365	100.199	199.964
9.7525	99.8364	100.199	199.965
9.755	99.8363	100.198	199.965
9.7575	99.8362	100.198	199.966
9.76	99.836	100.198	199.966
9.7625	99.8359	100.197	199.967
9.765	99.8358	100.197	199.967
9.7675	99.8357	100.196	199.968
9.77	99.8355	100.196	199.968
9.7725	99.8354	100.196	199.969
9.775	99.8353	100.195	199.97
9.7775	99.8352	100.195	199.97
9.78	99.8351	100.194	199.971
9.7825	99.835	100.194	199.971
9.785	99.8349	100.194	199.972
9.7875	99.8348	100.193	199.972
9.79	99.8347	100.193	199.973
9.7925	99.8346	100.192	199.973
9.795	99.8345	100.192	199.974
9.7975	99.8344	100.191	199.974
9.8	99.8343	100.191	199.975
9.8025	99.8342	100.191	199.975
9.805	99.8341	100.19	199.976
9.8075	99.834	100.19	199.976
9.81	99.8339	100.189	199.977
9.8125	99.8338	100.189	199.977
9.815	99.8337	100.189	199.978
9.8175	99.8337	100.188	199.978
9.82	99.8336	100.188	199.979
9.8225	99.8335	100.187	199.979
9.825	99.8334	100.187	199.98
9.8275	99.8334	100.186	199.98
9.83	99.8333	100.186	199.981
9.8325	99.8332	100.186	199.981
9.835	99.8331	100.185	199.982
9.8375	99.8331	100.185	199.982
9.84	99.833	100.184	199.983
9.8425	99.8329	100.184	199.983
9.845	99.8329	100.184	199.984
9.8475	99.8328	100.183	199.984
9.85	99.8328	100.183	199.985
9.8525	99.8327	100.182	199.985
9.855	99.8327	100.182	199.985
9.8575	99.8326	100.181	199.986
9.86	99.8326	100.181	199.986
9.8625	99.8325	100.181	199.987
9.865	99.8325	100.18	199.987
9.8675	99.8324	100.18	199.988
9.87	99.8324	100.179	199.988
9.8725	99.8323	100.179	199.989
9.875	99.8323	100.178	199.989
9.8775	99.8322	100.178	199.99
9.88	99.8322	100.178	199.99
9.8825	99.8322	100.177	199.991
9.885	99.8321	100.177	199.991
9.8875	99.8321	100.176	199.992
9.89	99.8321	100.176	199.992
9.8925	99.832	100.176	199.992
9.895	99.832	100.175	199.993
9.8975	99.832	100.175	199.993
9.9	99.832	100.174	199.994
9.9025	99.832	100.174	199.994
9.905	99.8319	100.173	199.995
9.9075	99.8319	100.173	199.995
9.91	99.8319	100.173	199.996
9.9125	99.8319	100.172	199.996
9.915	99.8319	100.172	199.996
9.9175	99.8319	100.171	199.997
9.92	99.8318	100.171	199.997
9.9225	99.8318	100.17	199.998
9.925	99.8318	100.17	199.998
9.9275	99.8318	100.17	199.999
9.93	99.8318	100.169	199.999
9.9325	99.8318	100.169	199.999
9.935	99.8318	100.168	200
9.9375	99.8318	100.168	200
9.94	99.8318	100.168	200.001
9.9425	99.8318	100.167	200.001
9.945	99.8318	100.167	200.001
9.9475	99.8318	100.166	200.002
9.95	99.8318	100.166	200.002
9.9525	99.8319	100.165	200.003
9.955	99.8319	100.165	200.003
9.9575	99.8319	100.165	200.004
9.96	99.8319	100.164	200.004
9.9625	99.8319	100.164	200.004
9.965	99.8319	100.163	200.005
9.9675	99.8319	100.163	200.005
9.97	99.832	100.162	200.006
9.9725	99.832	100.162	200.006
9.975	99.832	100.162	200.006
9.9775	99.832	100.161	200.007
9.98	99.8321	100.161	200.007
9.9825	99.8321	100.16	200.008
9.985	99.8321	100.16	200.008
9.9875	99.8322	100.16	200.008
9.99	99.8322	100.159	200.009
9.9925	99.8322	100.159	200.009
9.995	99.8323	100.158	200.009
9.9975	99.8323	100.158	200.01
10	99.8323	100.157	200.01
10.0025	99.8324	100.157	200.011
10.005	99.8324	100.157	200.011
10.0075	99.8325	100.156	200.011
10.01	99.8325	100.156	200.012
10.0125	99.8325	100.155	200.012
10.015	99.8326	100.155	200.012
10.0175	99.8326	100.155	200.013
10.02	99.8327	100.154	200.013
10.0225	99.8327	100.154	200.014
10.025	99.8328	100.153	200.014
10.0275	99.8328	100.153	200.014
10.03	99.8329	100.152	200.015
10.0325	99.833	100.152	200.015
10.035	99.833	100.152	200.015
10.0375	99.8331	100.151	200.016
10.04	99.8331	100.151	200.016
10.0425	99.8332	100.15	200.016
10.045	99.8333	100.15	200.017
10.0475	99.8333	100.149	200.017
10.05	99.8334	100.149	200.018
10.0525	99.8335	100.149	200.018
10.055	99.8335	100.148	200.018
10.0575	99.8336	100.148	200.019
10.06	99.8337	100.147	200.019
10.0625	99.8337	100.147	200.019
10.065	99.8338	100.147	200.02
10.0675	99.8339	100.146	200.02
10.07	99.834	100.146	200.02
10.0725	99.834	100.145	200.021
10.075	99.8341	100.145	200.021
10.0775	99.8342	100.145	200.021
10.08	99.8343	100.144	200.022
10.0825	99.8344	100.144	200.022
10.085	99.8344	100.143	200.022
10.0875	99.8345	100.143	200.023
10.09	99.8346	100.142	200.023
10.0925	99.8347	100.142	200.023
10.095	99.8348	100.142	200.024
10.0975	99.8349	100.141	200.024
10.1	99.835	100.141	200.024
10.1025	99.8351	100.14	200.025
10.105	99.8352	100.14	200.025
10.1075	99.8352	100.14	200.025
10.11	99.8353	100.139	200.026
10.1125	99.8354	100.139	200.026
10.115	99.8355	100.138	200.026
10.1175	99.8356	100.138	200.026
10.12	99.8357	100.137	200.027
10.1225	99.8358	100.137	200.027
10.125	99.8359	100.137	200.027
10.1275	99.836	100.136	200.028
10.13	99.8362	100.136	200.028
10.1325	99.8363	100.135	200.028
10.135	99.8364	100.135	200.029
10.1375	99.8365	100.135	200.029
10.14	99.8366	100.134	200.029
10.1425	99.8367	100.134	200.03
10.145	99.8368	100.133	200.03
10.1475	99.8369	100.133	200.03
10.15	99.837	100.133	200.03
10.1525	99.8371	100.132	200.031
10.155	99.8373	100.132	200.031
10.1575	99.8374	100.131	200.031
10.16	99.8375	100.131	200.032
10.1625	99.8376	100.131	200.032
10.165	99.8377	100.13	200.032
10.1675	99.8379	100.13	200.032
10.17	99.838	100.129	200.033
10.1725	99.8381	100.129	200.033
10.175	99.8382	100.128	200.033
10.1775	99.8384	100.128	200.034
10.18	99.8385	100.128	200.034
10.1825	99.8386	100.127	200.034
10.185	99.8387	100.127	200.034
10.1875	99.8389	100.126	200.035
10.19	99.839	100.126	200.035
10.1925	99.8391	100.126	200.035
10.195	99.8393	100.125	200.035
10.1975	99.8394	100.125	200.036
10.2	99.8395	100.124	200.036
10.2025	99.8397	100.124	200.036
10.205	99.8398	100.124	200.037
10.2075	99.8399	100.123	200.037
10.21	99.8401	100.123	200.037
10.2125	99.8402	100.122	200.037
10.215	99.8404	100.122	200.038
10.2175	99.8405	100.122	200.038
10.22	99.8407	100.121	200.038
10.2225	99.8408	100.121	200.038
10.225	99.8409	100.12	200.039
10.2275	99.8411	100.12	200.039
10.23	99.8412	100.12	200.039
10.2325	99.8414	100.119	200.039
10.235	99.8415	100.119	200.04
10.2375	99.8417	100.118	200.04
10.24	99.8418	100.118	200.04
10.2425	99.842	100.118	200.04
10.245	99.8421	100.117	200.041
10.2475	99.8423	100.117	200.041
10.25	99.8424	100.117	200.041
10.2525	99.8426	100.116	200.041
10.255	99.8428	100.116	200.042
10.2575	99.8429	100.115	200.042
10.26	99.8431	100.115	200.042
10.2625	99.8432	100.115	200.042
10.265	99.8434	100.114	200.042
10.2675	99.8435	100.114	200.043
10.27	99.8437	100.113	200.043
10.2725	99.8439	100.113	200.043
10.275	99.844	100.113	200.043
10.2775	99.8442	100.112	200.044
10.28	99.8444	100.112	200.044
10.2825	99.8445	100.111	200.044
10.285	99.8447	100.111	200.044
10.2875	99.8449	100.111	200.045
10.29	99.845	100.11	200.045
10.2925	99.8452	100.11	200.045
10.295	99.8454	100.109	200.045
10.2975	99.8455	100.109	200.045
10.3	99.8457	100.109	200.046
10.3025	99.8459	100.108	200.046
10.305	99.846	100.108	200.046
10.3075	99.8462	100.108	200.046
10.31	99.8464	100.107	200.046
10.3125	99.8466	100.107	200.047
10.315	99.8467	100.106	200.047
10.3175	99.8469	100.106	200.047
10.32	99.8471	100.106	200.047
10.3225	99.8473	100.105	200.047
10.325	99.8475	100.105	200.048
10.3275	99.8476	100.104	200.048
10.33	99.8478	100.104	200.048
10.3325	99.848	100.104	200.048
10.335	99.8482	100.103	200.048
10.3375	99.8484	100.103	200.049
10.34	99.8485	100.103	200.049
10.3425	99.8487	100.102	200.049
10.345	99.8489	100.102	200.049
10.3475	99.8491	100.101	200.049
10.35	99.8493	100.101	200.05
10.3525	99.8495	100.101	200.05
10.355	99.8497	100.1	200.05
10.3575	99.8498	100.1	200.05
10.36	99.85	100.1	200.05
10.3625	99.8502	100.099	200.051
10.365	99.8504	100.099	200.051
10.3675	99.8506	100.098	200.051
10.37	99.8508	100.098	200.051
10.3725	99.851	100.098	200.051
10.375	99.8512	100.097	200.052
10.3775	99.8514	100.097	200.052
10.38	99.8516	100.097	200.052
10.3825	99.8518	100.096	200.052
10.385	99.852	100.096	200.052
10.3875	99.8522	100.095	200.052
10.39	99.8524	100.095	200.053
10.3925	99.8526	100.095	200.053
10.395	99.8528	100.094	200.053
10.3975	99.853	100.094	200.053
10.4	99.8532	100.094	200.053
10.4025	99.8534	100.093	200.053
10.405	99.8536	100.093	200.054
10.4075	99.8538	100.093	200.054
10.41	99.854	100.092	200.054
10.4125	99.8542	100.092	200.054
10.415	99.8544	100.091	200.054
10.4175	99.8546	100.091	200.054
10.42	99.8548	100.091	200.055
10.4225	99.855	100.09	200.055
10.425	99.8552	100.09	200.055
10.4275	99.8554	100.09	200.055
10.43	99.8556	100.089	200.055
10.4325	99.8558	100.089	200.055
10.435	99.856	100.089	200.055
10.4375	99.8562	100.088	200.056
10.44	99.8564	100.088	200.056
10.4425	99.8566	100.087	200.056
10.445	99.8569	100.087	200.056
10.4475	99.8571	100.087	200.056
10.45	99.8573	100.086	200.056
10.4525	99.8575	100.086	200.057
10.455	99.8577	100.086	200.057
10.4575	99.8579	100.085	200.057
10.46	99.8581	100.085	200.057
10.4625	99.8583	100.085	200.057
10.465	99.8586	100.084	200.057
10.4675	99.8588	100.084	200.057
10.47	99.859	100.084	200.057
10.4725	99.8592	100.083	200.058
10.475	99.8594	100.083	200.058
10.4775	99.8596	100.082	200.058
10.48	99.8599	100.082	200.058
10.4825	99.8601	100.082	200.058
10.485	99.8603	100.081	200.058
10.4875	99.8605	100.081	200.058
10.49	99.8607	100.081	200.059
10.4925	99.8609	100.08	200.059
10.495	99.8612	100.08	200.059
10.4975	99.8614	100.08	200.059
10.5	99.8616	100.079	200.059
10.5025	99.8618	100.079	200.059
10.505	99.8621	100.079	200.059
10.5075	99.8623	100.078	200.059
10.51	99.8625	100.078	200.06
10.5125	99.8627	100.078	200.06
10.515	99.8629	100.077	200.06
10.5175	99.8632	100.077	200.06
10.52	99.8634	100.077	200.06
10.5225	99.8636	100.076	200.06
10.525	99.8638	100.076	200.06
10.5275	99.8641	100.076	200.06
10.53	99.8643	100.075	200.06
10.5325	99.8645	100.075	200.061
10.535	99.8648	100.075	200.061
10.5375	99.865	100.074	200.061
10.54	99.8652	100.074	200.061
10.5425	99.8654	100.074	200.061
10.545	99.8657	100.073	200.061
10.5475	99.8659	100.073	200.061
10.55	99.8661	100.073	200.061
10.5525	99.8664	100.072	200.061
10.555	99.8666	100.072	200.062
10.5575	99.8668	100.072	200.062
10.56	99.8671	100.071	200.062
10.5625	99.8673	100.071	200.062
10.565	99.8675	100.071	200.062
10.5675	99.8678	100.07	200.062
10.57	99.868	100.07	200.062
10.5725	99.8682	100.07	200.062
10.575	99.8685	100.069	200.062
10.5775	99.8687	100.069	200.062
10.58	99.8689	100.069	200.063
10.5825	99.8692	100.068	200.063
10.585	99.8694	100.068	200.063
10.5875	99.8696	100.068	200.063
10.59	99.8699	100.067	200.063
10.5925	99.8701	100.067	200.063
10.595	99.8703	100.067	200.063
10.5975	99.8706	100.066	200.063
10.6	99.8708	100.066	200.063
10.6025	99.871	100.066	200.063
10.605	99.8713	100.065	200.063
10.6075	99.8715	100.065	200.064
10.61	99.8718	100.065	200.064
10.6125	99.872	100.064	200.064
10.615	99.8722	100.064	200.064
10.6175	99.8725	100.064	200.064
10.62	99.8727	100.063	200.064
10.6225	99.873	100.063	200.064
10.625	99.8732	100.063	200.064
10.6275	99.8734	100.062	200.064
10.63	99.8737	100.062	200.064
10.6325	99.8739	100.062	200.064
10.635	99.8742	100.061	200.064
10.6375	99.8744	100.061	200.064
10.64	99.8746	100.061	200.065
10.6425	99.8749	100.061	200.065
10.645	99.8751	100.06	200.065
10.6475	99.8754	100.06	200.065
10.65	99.8756	100.06	200.065
10.6525	99.8759	100.059	200.065
10.655	99.8761	100.059	200.065
10.6575	99.8764	100.059	200.065
10.66	99.8766	100.058	200.065
10.6625	99.8768	100.058	200.065
10.665	99.8771	100.058	200.065
10.6675	99.8773	100.057	200.065
10.67	99.8776	100.057	200.065
10.6725	99.8778	100.057	200.065
10.675	99.8781	100.057	200.065
10.6775	99.8783	100.056	200.065
10.68	99.8786	100.056	200.066
10.6825	99.8788	100.056	200.066
10.685	99.879	100.055	200.066
10.6875	99.8793	100.055	200.066
10.69	99.8795	100.055	200.066
10.6925	99.8798	100.054	200.066
10.695	99.88	100.054	200.066
10.6975	99.8803	100.054	200.066
10.7	99.8805	100.053	200.066
10.7025	99.8808	100.053	200.066
10.705	99.881	100.053	200.066
10.7075	99.8813	100.053	200.066
10.71	99.8815	100.052	200.066
10.7125	99.8818	100.052	200.066
10.715	99.882	100.052	200.066
10.7175	99.8823	100.051	200.066
10.72	99.8825	100.051	200.066
10.7225	99.8828	100.051	200.066
10.725	99.883	100.051	200.066
10.7275	99.8833	100.05	200.066
10.73	99.8835	100.05	200.067
10.7325	99.8838	100.05	200.067
10.735	99.884	100.049	200.067
10.7375	99.8843	100.049	200.067
10.74	99.8845	100.049	200.067
10.7425	99.8848	100.049	200.067
10.745	99.885	100.048	200.067
10.7475	99.8853	100.048	200.067
10.75	99.8855	100.048	200.067
10.7525	99.8858	100.047	200.067
10.755	99.886	100.047	200.067
10.7575	99.8863	100.047	200.067
10.76	99.8865	100.047	200.067
10.7625	99.8868	100.046	200.067
10.765	99.887	100.046	200.067
10.7675	99.8873	100.046	200.067
10.77	99.8875	100.045	200.067
10.7725	99.8878	100.045	200.067
10.775	99.888	100.045	200.067
10.7775	99.8883	100.045	200.067
10.78	99.8885	100.044	200.067
10.7825	99.8888	100.044	200.067
10.785	99.889	100.044	200.067
10.7875	99.8893	100.043	200.067
10.79	99.8895	100.043	200.067
10.7925	99.8898	100.043	200.067
10.795	99.89	100.043	200.067
10.7975	99.8903	100.042	200.067
10.8	99.8906	100.042	200.067
10.8025	99.8908	100.042	200.067
10.805	99.8911	100.041	200.067
10.8075	99.8913	100.041	200.067
10.81	99.8916	100.041	200.067
10.8125	99.8918	100.041	200.068
10.815	99.8921	100.04	200.068
10.8175	99.8923	100.04	200.068
10.82	99.8926	100.04	200.068
10.8225	99.8928	100.04	200.068
10.825	99.8931	100.039	200.068
10.8275	99.8933	100.039	200.068
10.83	99.8936	100.039	200.068
10.8325	99.8938	100.039	200.068
10.835	99.8941	100.038	200.068
10.8375	99.8944	100.038	200.068
10.84	99.8946	100.038	200.068
10.8425	99.8949	100.037	200.068
10.845	99.8951	100.037	200.068
10.8475	99.8954	100.037	200.068
10.85	99.8956	100.037	200.068
10.8525	99.8959	100.036	200.068
10.855	99.8961	100.036	200.068
10.8575	99.8964	100.036	200.068
10.86	99.8966	100.036	200.068
10.8625	99.8969	100.035	200.068
10.865	99.8971	100.035	200.068
10.8675	99.8974	100.035	200.068
10.87	99.8977	100.035	200.068
10.8725	99.8979	100.034	200.068
10.875	99.8982	100.034	200.068
10.8775	99.8984	100.034	200.068
10.88	99.8987	100.034	200.068
10.8825	99.8989	100.033	200.068
10.885	99.8992	100.033	200.068
10.8875	99.8994	100.033	200.068
10.89	99.8997	100.033	200.068
10.8925	99.8999	100.032	200.068
10.895	99.9002	100.032	200.068
10.8975	99.9004	100.032	200.068
10.9	99.9007	100.032	200.068
10.9025	99.901	100.031	200.068
10.905	99.9012	100.031	200.068
10.9075	99.9015	100.031	200.068
10.91	99.9017	100.031	200.068
10.9125	99.902	100.03	200.068
10.915	99.9022	100.03	200.068
10.9175	99.9025	100.03	200.068
10.92	99.9027	100.03	200.068
10.9225	99.903	100.029	200.068
10.925	99.9032	100.029	200.068
10.9275	99.9035	100.029	200.068
10.93	99.9037	100.029	200.068
10.9325	99.904	100.028	200.068
10.935	99.9043	100.028	200.068
10.9375	99.9045	100.028	200.068
10.94	99.9048	100.028	200.068
10.9425	99.905	100.027	200.068
10.945	99.9053	100.027	200.067
10.9475	99.9055	100.027	200.067
10.95	99.9058	100.027	200.067
10.9525	99.906	100.027	200.067
10.955	99.9063	100.026	200.067
10.9575	99.9065	100.026	200.067
10.96	99.9068	100.026	200.067
10.9625	99.907	100.026	200.067
10.965	99.9073	100.025	200.067
10.9675	99.9075	100.025	200.067
10.97	99.9078	100.025	200.067
10.9725	99.908	100.025	200.067
10.975	99.9083	100.024	200.067
10.9775	99.9086	100.024	200.067
10.98	99.9088	100.024	200.067
10.9825	99.9091	100.024	200.067
10.985	99.9093	100.024	200.067
10.9875	99.9096	100.023	200.067
10.99	99.9098	100.023	200.067
10.9925	99.9101	100.023	200.067
10.995	99.9103	100.023	200.067
10.9975	99.9106	100.022	200.067
11	99.9108	100.022	200.067
11.0025	99.9111	100.022	200.067
11.005	99.9113	100.022	200.067
11.0075	99.9116	100.022	200.067
11.01	99.9118	100.021	200.067
11.0125	99.9121	100.021	200.067
11.015	99.9123	100.021	200.067
11.0175	99.9126	100.021	200.067
11.02	99.9128	100.02	200.067
11.0225	99.9131	100.02	200.067
11.025	99.9133	100.02	200.067
11.0275	99.9136	100.02	200.067
11.03	99.9138	100.02	200.067
11.0325	99.9141	100.019	200.067
11.035	99.9143	100.019	200.067
11.0375	99.9146	100.019	200.067
11.04	99.9148	100.019	200.066
11.0425	99.9151	100.018	200.066
11.045	99.9153	100.018	200.066
11.0475	99.9156	100.018	200.066
11.05	99.9158	100.018	200.066
11.0525	99.9161	100.018	200.066
11.055	99.9163	100.017	200.066
11.0575	99.9166	100.017	200.066
11.06	99.9168	100.017	200.066
11.0625	99.9171	100.017	200.066
11.065	99.9173	100.017	200.066
11.0675	99.9176	100.016	200.066
11.07	99.9178	100.016	200.066
11.0725	99.9181	100.016	200.066
11.075	99.9183	100.016	200.066
11.0775	99.9186	100.016	200.066
11.08	99.9188	100.015	200.066
11.0825	99.919	100.015	200.066
11.085	99.9193	100.015	200.066
11.0875	99.9195	100.015	200.066
11.09	99.9198	100.015	200.066
11.0925	99.92	100.014	200.066
11.095	99.9203	100.014	200.066
11.0975	99.9205	100.014	200.066
11.1	99.9208	100.014	200.065
11.1025	99.921	100.014	200.065
11.105	99.9213	100.013	200.065
11.1075	99.9215	100.013	200.065
11.11	99.9217	100.013	200.065
11.1125	99.922	100.013	200.065
11.115	99.9222	100.013	200.065
11.1175	99.9225	100.012	200.065
11.12	99.9227	100.012	200.065
11.1225	99.923	100.012	200.065
11.125	99.9232	100.012	200.065
11.1275	99.9235	100.012	200.065
11.13	99.9237	100.011	200.065
11.1325	99.9239	100.011	200.065
11.135	99.9242	100.011	200.065
11.1375	99.9244	100.011	200.065
11.14	99.9247	100.011	200.065
11.1425	99.9249	100.01	200.065
11.145	99.9252	100.01	200.065
11.1475	99.9254	100.01	200.065
11.15	99.9256	100.01	200.064
11.1525	99.9259	100.01	200.064
11.155	99.9261	100.01	200.064
11.1575	99.9264	100.009	200.064
11.16	99.9266	100.009	200.064
11.1625	99.9268	100.009	200.064
11.165	99.9271	100.009	200.064
11.1675	99.9273	100.009	200.064
11.17	99.9276	100.008	200.064
11.1725	99.9278	100.008	200.064
11.175	99.928	100.008	200.064
11.1775	99.9283	100.008	200.064
11.18	99.9285	100.008	200.064
11.1825	99.9288	100.008	200.064
11.185	99.929	100.007	200.064
11.1875	99.9292	100.007	200.064
11.19	99.9295	100.007	200.064
11.1925	99.9297	100.007	200.063
11.195	99.93	100.007	200.063
11.1975	99.9302	100.006	200.063
11.2	99.9304	100.006	200.063
11.2025	99.9307	100.006	200.063
11.205	99.9309	100.006	200.063
11.2075	99.9311	100.006	200.063
11.21	99.9314	100.006	200.063
11.2125	99.9316	100.005	200.063
11.215	99.9319	100.005	200.063
11.2175	99.9321	100.005	200.063
11.22	99.9323	100.005	200.063
11.2225	99.9326	100.005	200.063
11.225	99.9328	100.005	200.063
11.2275	99.933	100.004	200.063
11.23	99.9333	100.004	200.062
11.2325	99.9335	100.004	200.062
11.235	99.9337	100.004	200.062
11.2375	99.934	100.004	200.062
11.24	99.9342	100.004	200.062
11.2425	99.9344	100.003	200.062
11.245	99.9347	100.003	200.062
11.2475	99.9349	100.003	200.062
11.25	99.9351	100.003	200.062
11.2525	99.9354	100.003	200.062
11.255	99.9356	100.003	200.062
11.2575	99.9358	100.002	200.062
11.26	99.9361	100.002	200.062
11.2625	99.9363	100.002	200.062
11.265	99.9365	100.002	200.061
11.2675	99.9367	100.002	200.061
11.27	99.937	100.002	200.061
11.2725	99.9372	100.002	200.061
11.275	99.9374	100.001	200.061
11.2775	99.9377	100.001	200.061
11.28	99.9379	100.001	200.061
11.2825	99.9381	100.001	200.061
11.285	99.9384	100.001	200.061
11.2875	99.9386	100.001	200.061
11.29	99.9388	100	200.061
11.2925	99.939	100	200.061
11.295	99.9393	100	200.061
11.2975	99.9395	100	200.061
11.3	99.9397	99.9998	200.06
11.3025	99.9399	99.9997	200.06
11.305	99.9402	99.9995	200.06
11.3075	99.9404	99.9994	200.06
11.31	99.9406	99.9992	200.06
11.3125	99.9408	99.9991	200.06
11.315	99.9411	99.9989	200.06
11.3175	99.9413	99.9988	200.06
11.32	99.9415	99.9986	200.06
11.3225	99.9417	99.9985	200.06
11.325	99.942	99.9983	200.06
11.3275	99.9422	99.9982	200.06
11.33	99.9424	99.9981	200.06
11.3325	99.9426	99.9979	200.059
11.335	99.9429	99.9978	200.059
11.3375	99.9431	99.9976	200.059
11.34	99.9433	99.9975	200.059
11.3425	99.9435	99.9973	200.059
11.345	99.9437	99.9972	200.059
11.3475	99.944	99.9971	200.059
11.35	99.9442	99.9969	200.059
11.3525	99.9444	99.9968	200.059
11.355	99.9446	99.9966	200.059
11.3575	99.9449	99.9965	200.059
11.36	99.9451	99.9964	200.059
11.3625	99.9453	99.9962	200.058
11.365	99.9455	99.9961	200.058
11.3675	99.9457	99.996	200.058
11.37	99.9459	99.9958	200.058
11.3725	99.9462	99.9957	200.058
11.375	99.9464	99.9956	200.058
11.3775	99.9466	99.9954	200.058
11.38	99.9468	99.9953	200.058
11.3825	99.947	99.9952	200.058
11.385	99.9473	99.995	200.058
11.3875	99.9475	99.9949	200.058
11.39	99.9477	99.9948	200.058
11.3925	99.9479	99.9946	200.057
11.395	99.9481	99.9945	200.057
11.3975	99.9483	99.9944	200.057
11.4	99.9485	99.9942	200.057
11.4025	99.9488	99.9941	200.057
11.405	99.949	99.994	200.057
11.4075	99.9492	99.9939	200.057
11.41	99.9494	99.9937	200.057
11.4125	99.9496	99.9936	200.057
11.415	99.9498	99.9935	200.057
11.4175	99.95	99.9934	200.057
11.42	99.9503	99.9932	200.057
11.4225	99.9505	99.9931	200.056
11.425	99.9507	99.993	200.056
11.4275	99.9509	99.9929	200.056
11.43	99.9511	99.9927	200.056
11.4325	99.9513	99.9926	200.056
11.435	99.9515	99.9925	200.056
11.4375	99.9517	99.9924	200.056
11.44	99.9519	99.9923	200.056
11.4425	99.9521	99.9921	200.056
11.445	99.9524	99.992	200.056
11.4475	99.9526	99.9919	200.056
11.45	99.9528	99.9918	200.055
11.4525	99.953	99.9917	200.055
11.455	99.9532	99.9915	200.055
11.4575	99.9534	99.9914	200.055
11.46	99.9536	99.9913	200.055
11.4625	99.9538	99.9912	200.055
11.465	99.954	99.9911	200.055
11.4675	99.9542	99.991	200.055
11.47	99.9544	99.9908	200.055
11.4725	99.9546	99.9907	200.055
11.475	99.9548	99.9906	200.055
11.4775	99.955	99.9905	200.054
11.48	99.9552	99.9904	200.054
11.4825	99.9554	99.9903	200.054
11.485	99.9556	99.9902	200.054
11.4875	99.9559	99.9901	200.054
11.49	99.9561	99.99	200.054
11.4925	99.9563	99.9898	200.054
11.495	99.9565	99.9897	200.054
11.4975	99.9567	99.9896	200.054
11.5	99.9569	99.9895	200.054
11.5025	99.9571	99.9894	200.054
11.505	99.9573	99.9893	200.053
11.5075	99.9575	99.9892	200.053
11.51	99.9577	99.9891	200.053
11.5125	99.9579	99.989	200.053
11.515	99.9581	99.9889	200.053
11.5175	99.9583	99.9888	200.053
11.52	99.9585	99.9887	200.053
11.5225	99.9587	99.9886	200.053
11.525	99.9589	99.9885	200.053
11.5275	99.9591	99.9884	200.053
11.53	99.9592	99.9883	200.052
11.5325	99.9594	99.9882	200.052
11.535	99.9596	99.9881	200.052
11.5375	99.9598	99.988	200.052
11.54	99.96	99.9879	200.052
11.5425	99.9602	99.9878	200.052
11.545	99.9604	99.9877	200.052
11.5475	99.9606	99.9876	200.052
11.55	99.9608	99.9875	200.052
11.5525	99.961	99.9874	200.052
11.555	99.9612	99.9873	200.052
11.5575	99.9614	99.9872	200.051
11.56	99.9616	99.9871	200.051
11.5625	99.9618	99.987	200.051
11.565	99.962	99.9869	200.051
11.5675	99.9622	99.9868	200.051
11.57	99.9624	99.9867	200.051
11.5725	99.9625	99.9866	200.051
11.575	99.9627	99.9865	200.051
11.5775	99.9629	99.9864	200.051
11.58	99.9631	99.9863	200.051
11.5825	99.9633	99.9862	200.05
11.585	99.9635	99.9861	200.05
11.5875	99.9637	99.986	200.05
11.59	99.9639	99.986	200.05
11.5925	99.9641	99.9859	200.05
11.595	99.9642	99.9858	200.05
11.5975	99.9644	99.9857	200.05
11.6	99.9646	99.9856	200.05
11.6025	99.9648	99.9855	200.05
11.605	99.965	99.9854	200.05
11.6075	99.9652	99.9853	200.049
11.61	99.9654	99.9852	200.049
11.6125	99.9655	99.9852	200.049
11.615	99.9657	99.9851	200.049
11.6175	99.9659	99.985	200.049
11.62	99.9661	99.9849	200.049
11.6225	99.9663	99.9848	200.049
11.625	99.9665	99.9847	200.049
11.6275	99.9666	99.9847	200.049
11.63	99.9668	99.9846	200.049
11.6325	99.967	99.9845	200.048
11.635	99.9672	99.9844	200.048
11.6375	99.9674	99.9843	200.048
11.64	99.9676	99.9842	200.048
11.6425	99.9677	99.9842	200.048
11.645	99.9679	99.9841	200.048
11.6475	99.9681	99.984	200.048
11.65	99.9683	99.9839	200.048
11.6525	99.9685	99.9838	200.048
11.655	99.9686	99.9838	200.048
11.6575	99.9688	99.9837	200.048
11.66	99.969	99.9836	200.047
11.6625	99.9692	99.9835	200.047
11.665	99.9693	99.9835	200.047
11.6675	99.9695	99.9834	200.047
11.67	99.9697	99.9833	200.047
11.6725	99.9699	99.9832	200.047
11.675	99.9701	99.9832	200.047
11.6775	99.9702	99.9831	200.047
11.68	99.9704	99.983	200.047
11.6825	99.9706	99.9829	200.046
11.685	99.9708	99.9829	200.046
11.6875	99.9709	99.9828	200.046
11.69	99.9711	99.9827	200.046
11.6925	99.9713	99.9826	200.046
11.695	99.9714	99.9826	200.046
11.6975	99.9716	99.9825	200.046
11.7	99.9718	99.9824	200.046
11.7025	99.972	99.9824	200.046
11.705	99.9721	99.9823	200.046
11.7075	99.9723	99.9822	200.045
11.71	99.9725	99.9821	200.045
11.7125	99.9726	99.9821	200.045
11.715	99.9728	99.982	200.045
11.7175	99.973	99.9819	200.045
11.72	99.9731	99.9819	200.045
11.7225	99.9733	99.9818	200.045
11.725	99.9735	99.9817	200.045
11.7275	99.9737	99.9817	200.045
11.73	99.9738	99.9816	200.045
11.7325	99.974	99.9815	200.044
11.735	99.9742	99.9815	200.044
11.7375	99.9743	99.9814	200.044
11.74	99.9745	99.9813	200.044
11.7425	99.9747	99.9813	200.044
11.745	99.9748	99.9812	200.044
11.7475	99.975	99.9812	200.044
11.75	99.9751	99.9811	200.044
11.7525	99.9753	99.981	200.044
11.755	99.9755	99.981	200.044
11.7575	99.9756	99.9809	200.043
11.76	99.9758	99.9809	200.043
11.7625	99.976	99.9808	200.043
11.765	99.9761	99.9807	200.043
11.7675	99.9763	99.9807	200.043
11.77	99.9764	99.9806	200.043
11.7725	99.9766	99.9806	200.043
11.775	99.9768	99.9805	200.043
11.7775	99.9769	99.9804	200.043
11.78	99.9771	99.9804	200.043
11.7825	99.9772	99.9803	200.042
11.785	99.9774	99.9803	200.042
11.7875	99.9776	99.9802	200.042
11.79	99.9777	99.9802	200.042
11.7925	99.9779	99.9801	200.042
11.795	99.978	99.98	200.042
11.7975	99.9782	99.98	200.042
11.8	99.9784	99.9799	200.042
11.8025	99.9785	99.9799	200.042
11.805	99.9787	99.9798	200.042
11.8075	99.9788	99.9798	200.041
11.81	99.979	99.9797	200.041
11.8125	99.9791	99.9797	200.041
11.815	99.9793	99.9796	200.041
11.8175	99.9794	99.9796	200.041
11.82	99.9796	99.9795	200.041
11.8225	99.9797	99.9795	200.041
11.825	99.9799	99.9794	200.041
11.8275	99.98	99.9794	200.041
11.83	99.9802	99.9793	200.04
11.8325	99.9804	99.9793	200.04
11.835	99.9805	99.9792	200.04
11.8375	99.9807	99.9792	200.04
11.84	99.9808	99.9791	200.04
11.8425	99.981	99.9791	200.04
11.845	99.9811	99.979	200.04
11.8475	99.9813	99.979	200.04
11.85	99.9814	99.9789	200.04
11.8525	99.9816	99.9789	200.04
11.855	99.9817	99.9788	200.039
11.8575	99.9818	99.9788	200.039
11.86	99.982	99.9787	200.039
11.8625	99.9821	99.9787	200.039
11.865	99.9823	99.9787	200.039
11.8675	99.9824	99.9786	200.039
11.87	99.9826	99.9786	200.039
11.8725	99.9827	99.9785	200.039
11.875	99.9829	99.9785	200.039
11.8775	99.983	99.9784	200.039
11.88	99.9832	99.9784	200.038
11.8825	99.9833	99.9784	200.038
11.885	99.9834	99.9783	200.038
11.8875	99.9836	99.9783	200.038
11.89	99.9837	99.9782	200.038
11.8925	99.9839	99.9782	200.038
11.895	99.984	99.9782	200.038
11.8975	99.9842	99.9781	200.038
11.9	99.9843	99.9781	200.038
11.9025	99.9844	99.978	200.038
11.905	99.9846	99.978	200.037
11.9075	99.9847	99.978	200.037
11.91	99.9849	99.9779	200.037
11.9125	99.985	99.9779	200.037
11.915	99.9851	99.9778	200.037
11.9175	99.9853	99.9778	200.037
11.92	99.9854	99.9778	200.037
11.9225	99.9856	99.9777	200.037
11.925	99.9857	99.9777	200.037
11.9275	99.9858	99.9777	200.037
11.93	99.986	99.9776	200.036
11.9325	99.9861	99.9776	200.036
11.935	99.9862	99.9776	200.036
11.9375	99.9864	99.9775	200.036
11.94	99.9865	99.9775	200.036
11.9425	99.9866	99.9775	200.036
11.945	99.9868	99.9774	200.036
11.9475	99.9869	99.9774	200.036
11.95	99.987	99.9774	200.036
11.9525	99.9872	99.9773	200.035
11.955	99.9873	99.9773	200.035
11.9575	99.9874	99.9773	200.035
11.96	99.9876	99.9772	200.035
11.9625	99.9877	99.9772	200.035
11.965	99.9878	99.9772	200.035
11.9675	99.988	99.9771	200.035
11.97	99.9881	99.9771	200.035
11.9725	99.9882	99.9771	200.035
11.975	99.9884	99.9771	200.035
11.9775	99.9885	99.977	200.034
11.98	99.9886	99.977	200.034
11.9825	99.9887	99.977	200.034
11.985	99.9889	99.9769	200.034
11.9875	99.989	99.9769	200.034
11.99	99.9891	99.9769	200.034
11.9925	99.9893	99.9769	200.034
11.995	99.9894	99.9768	200.034
11.9975	99.9895	99.9768	200.034
12	99.9896	99.9768	200.034
12.0025	99.9898	99.9768	200.033
12.005	99.9899	99.9767	200.033
12.0075	99.99	99.9767	200.033
12.01	99.9901	99.9767	200.033
12.0125	99.9903	99.9767	200.033
12.015	99.9904	99.9766	200.033
12.0175	99.9905	99.9766	200.033
12.02	99.9906	99.9766	200.033
12.0225	99.9908	99.9766	200.033
12.025	99.9909	99.9765	200.033
12.0275	99.991	99.9765	200.032
12.03	99.9911	99.9765	200.032
12.0325	99.9912	99.9765	200.032
12.035	99.9914	99.9764	200.032
12.0375	99.9915	99.9764	200.032
12.04	99.9916	99.9764	200.032
12.0425	99.9917	99.9764	200.032
12.045	99.9918	99.9764	200.032
12.0475	99.992	99.9763	200.032
12.05	99.9921	99.9763	200.032
12.0525	99.9922	99.9763	200.031
12.055	99.9923	99.9763	200.031
12.0575	99.9924	99.9763	200.031
12.06	99.9926	99.9762	200.031
12.0625	99.9927	99.9762	200.031
12.065	99.9928	99.9762	200.031
12.0675	99.9929	99.9762	200.031
12.07	99.993	99.9762	200.031
12.0725	99.9931	99.9762	200.031
12.075	99.9933	99.9761	200.031
12.0775	99.9934	99.9761	200.031
12.08	99.9935	99.9761	200.03
12.0825	99.9936	99.9761	200.03
12.085	99.9937	99.9761	200.03
12.0875	99.9938	99.9761	200.03
12.09	99.9939	99.976	200.03
12.0925	99.994	99.976	200.03
12.095	99.9942	99.976	200.03
12.0975	99.9943	99.976	200.03
12.1	99.9944	99.976	200.03
12.1025	99.9945	99.976	200.03
12.105	99.9946	99.976	200.029
12.1075	99.9947	99.9759	200.029
12.11	99.9948	99.9759	200.029
12.1125	99.9949	99.9759	200.029
12.115	99.995	99.9759	200.029
12.1175	99.9951	99.9759	200.029
12.12	99.9953	99.9759	200.029
12.1225	99.9954	99.9759	200.029
12.125	99.9955	99.9759	200.029
12.1275	99.9956	99.9758	200.029
12.13	99.9957	99.9758	200.028
12.1325	99.9958	99.9758	200.028
12.135	99.9959	99.9758	200.028
12.1375	99.996	99.9758	200.028
12.14	99.9961	99.9758	200.028
12.1425	99.9962	99.9758	200.028
12.145	99.9963	99.9758	200.028
12.1475	99.9964	99.9758	200.028
12.15	99.9965	99.9758	200.028
12.1525	99.9966	99.9757	200.028
12.155	99.9967	99.9757	200.028
12.1575	99.9968	99.9757	200.027
12.16	99.9969	99.9757	200.027
12.1625	99.997	99.9757	200.027
12.165	99.9971	99.9757	200.027
12.1675	99.9972	99.9757	200.027
12.17	99.9974	99.9757	200.027
12.1725	99.9975	99.9757	200.027
12.175	99.9976	99.9757	200.027
12.1775	99.9977	99.9757	200.027
12.18	99.9978	99.9757	200.027
12.1825	99.9979	99.9757	200.026
12.185	99.998	99.9757	200.026
12.1875	99.998	99.9757	200.026
12.19	99.9981	99.9756	200.026
12.1925	99.9982	99.9756	200.026
12.195	99.9983	99.9756	200.026
12.1975	99.9984	99.9756	200.026
12.2	99.9985	99.9756	200.026
12.2025	99.9986	99.9756	200.026
12.205	99.9987	99.9756	200.026
12.2075	99.9988	99.9756	200.026
12.21	99.9989	99.9756	200.025
12.2125	99.999	99.9756	200.025
12.215	99.9991	99.9756	200.025
12.2175	99.9992	99.9756	200.025
12.22	99.9993	99.9756	200.025
12.2225	99.9994	99.9756	200.025
12.225	99.9995	99.9756	200.025
12.2275	99.9996	99.9756	200.025
12.23	99.9997	99.9756	200.025
12.2325	99.9998	99.9756	200.025
12.235	99.9999	99.9756	200.025
12.2375	100	99.9756	200.024
12.24	100	99.9756	200.024
12.2425	100	99.9756	200.024
12.245	100	99.9756	200.024
12.2475	100	99.9756	200.024
12.25	100	99.9756	200.024
12.2525	100	99.9756	200.024
12.255	100.001	99.9756	200.024
12.2575	100.001	99.9756	200.024
12.26	100.001	99.9756	200.024
12.2625	100.001	99.9756	200.024
12.265	100.001	99.9756	200.023
12.2675	100.001	99.9756	200.023
12.27	100.001	99.9756	200.023
12.2725	100.001	99.9756	200.023
12.275	100.001	99.9756	200.023
12.2775	100.001	99.9756	200.023
12.28	100.001	99.9756	200.023
12.2825	100.002	99.9756	200.023
12.285	100.002	99.9756	200.023
12.2875	100.002	99.9756	200.023
12.29	100.002	99.9757	200.023
12.2925	100.002	99.9757	200.022
12.295	100.002	99.9757	200.022
12.2975	100.002	99.9757	200.022
12.3	100.002	99.9757	200.022
12.3025	100.002	99.9757	200.022
12.305	100.002	99.9757	200.022
12.3075	100.002	99.9757	200.022
12.31	100.002	99.9757	200.022
12.3125	100.003	99.9757	200.022
12.315	100.003	99.9757	200.022
12.3175	100.003	99.9757	200.022
12.32	100.003	99.9757	200.021
12.3225	100.003	99.9757	200.021
12.325	100.003	99.9757	200.021
12.3275	100.003	99.9757	200.021
12.33	100.003	99.9758	200.021
12.3325	100.003	99.9758	200.021
12.335	100.003	99.9758	200.021
12.3375	100.003	99.9758	200.021
12.34	100.003	99.9758	200.021
12.3425	100.004	99.9758	200.021
12.345	100.004	99.9758	200.021
12.3475	100.004	99.9758	200.021
12.35	100.004	99.9758	200.02
12.3525	100.004	99.9758	200.02
12.355	100.004	99.9758	200.02
12.3575	100.004	99.9758	200.02
12.36	100.004	99.9759	200.02
12.3625	100.004	99.9759	200.02
12.365	100.004	99.9759	200.02
12.3675	100.004	99.9759	200.02
12.37	100.004	99.9759	200.02
12.3725	100.004	99.9759	200.02
12.375	100.004	99.9759	200.02
12.3775	100.005	99.9759	200.02
12.38	100.005	99.9759	200.019
12.3825	100.005	99.976	200.019
12.385	100.005	99.976	200.019
12.3875	100.005	99.976	200.019
12.39	100.005	99.976	200.019
12.3925	100.005	99.976	200.019
12.395	100.005	99.976	200.019
12.3975	100.005	99.976	200.019
12.4	100.005	99.976	200.019
12.4025	100.005	99.9761	200.019
12.405	100.005	99.9761	200.019
12.4075	100.005	99.9761	200.019
12.41	100.005	99.9761	200.018
12.4125	100.006	99.9761	200.018
12.415	100.006	99.9761	200.018
12.4175	100.006	99.9761	200.018
12.42	100.006	99.9762	200.018
12.4225	100.006	99.9762	200.018
12.425	100.006	99.9762	200.018
12.4275	100.006	99.9762	200.018
12.43	100.006	99.9762	200.018
12.4325	100.006	99.9762	200.018
12.435	100.006	99.9762	200.018
12.4375	100.006	99.9763	200.018
12.44	100.006	99.9763	200.017
12.4425	100.006	99.9763	200.017
12.445	100.006	99.9763	200.017
12.4475	100.006	99.9763	200.017
12.45	100.007	99.9763	200.017
12.4525	100.007	99.9764	200.017
12.455	100.007	99.9764	200.017
12.4575	100.007	99.9764	200.017
12.46	100.007	99.9764	200.017
12.4625	100.007	99.9764	200.017
12.465	100.007	99.9764	200.017
12.4675	100.007	99.9765	200.017
12.47	100.007	99.9765	200.016
12.4725	100.007	99.9765	200.016
12.475	100.007	99.9765	200.016
12.4775	100.007	99.9765	200.016
12.48	100.007	99.9765	200.016
12.4825	100.007	99.9766	200.016
12.485	100.007	99.9766	200.016
12.4875	100.007	99.9766	200.016
12.49	100.008	99.9766	200.016
12.4925	100.008	99.9766	200.016
12.495	100.008	99.9767	200.016
12.4975	100.008	99.9767	200.016
12.5	100.008	99.9767	200.016
12.5025	100.008	99.9767	200.015
12.505	100.008	99.9767	200.015
12.5075	100.008	99.9768	200.015
12.51	100.008	99.9768	200.015
12.5125	100.008	99.9768	200.015
12.515	100.008	99.9768	200.015
12.5175	100.008	99.9768	200.015
12.52	100.008	99.9769	200.015
12.5225	100.008	99.9769	200.015
12.525	100.008	99.9769	200.015
12.5275	100.008	99.9769	200.015
12.53	100.008	99.9769	200.015
12.5325	100.009	99.977	200.015
12.535	100.009	99.977	200.014
12.5375	100.009	99.977	200.014
12.54	100.009	99.977	200.014
12.5425	100.009	99.977	200.014
12.545	100.009	99.9771	200.014
12.5475	100.009	99.9771	200.014
12.55	100.009	99.9771	200.014
12.5525	100.009	99.9771	200.014
12.555	100.009	99.9772	200.014
12.5575	100.009	99.9772	200.014
12.56	100.009	99.9772	200.014
12.5625	100.009	99.9772	200.014
12.565	100.009	99.9772	200.014
12.5675	100.009	99.9773	200.013
12.57	100.009	99.9773	200.013
12.5725	100.009	99.9773	200.013
12.575	100.009	99.9773	200.013
12.5775	100.009	99.9774	200.013
12.58	100.009	99.9774	200.013
12.5825	100.01	99.9774	200.013
12.585	100.01	99.9774	200.013
12.5875	100.01	99.9775	200.013
12.59	100.01	99.9775	200.013
12.5925	100.01	99.9775	200.013
12.595	100.01	99.9775	200.013
12.5975	100.01	99.9776	200.013
12.6	100.01	99.9776	200.013
12.6025	100.01	99.9776	200.012
12.605	100.01	99.9776	200.012
12.6075	100.01	99.9777	200.012
12.61	100.01	99.9777	200.012
12.6125	100.01	99.9777	200.012
12.615	100.01	99.9777	200.012
12.6175	100.01	99.9778	200.012
12.62	100.01	99.9778	200.012
12.6225	100.01	99.9778	200.012
12.625	100.01	99.9778	200.012
12.6275	100.01	99.9779	200.012
12.63	100.01	99.9779	200.012
12.6325	100.01	99.9779	200.012
12.635	100.011	99.9779	200.012
12.6375	100.011	99.978	200.011
12.64	100.011	99.978	200.011
12.6425	100.011	99.978	200.011
12.645	100.011	99.978	200.011
12.6475	100.011	99.9781	200.011
12.65	100.011	99.9781	200.011
12.6525	100.011	99.9781	200.011
12.655	100.011	99.9782	200.011
12.6575	100.011	99.9782	200.011
12.66	100.011	99.9782	200.011
12.6625	100.011	99.9782	200.011
12.665	100.011	99.9783	200.011
12.6675	100.011	99.9783	200.011
12.67	100.011	99.9783	200.011
12.6725	100.011	99.9783	200.011
12.675	100.011	99.9784	200.01
12.6775	100.011	99.9784	200.01
12.68	100.011	99.9784	200.01
12.6825	100.011	99.9785	200.01
12.685	100.011	99.9785	200.01
12.6875	100.011	99.9785	200.01
12.69	100.011	99.9785	200.01
12.6925	100.011	99.9786	200.01
12.695	100.011	99.9786	200.01
12.6975	100.012	99.9786	200.01
12.7	100.012	99.9787	200.01
12.7025	100.012	99.9787	200.01
12.705	100.012	99.9787	200.01
12.7075	100.012	99.9787	200.01
12.71	100.012	99.9788	200.01
12.7125	100.012	99.9788	200.009
12.715	100.012	99.9788	200.009
12.7175	100.012	99.9789	200.009
12.72	100.012	99.9789	200.009
12.7225	100.012	99.9789	200.009
12.725	100.012	99.9789	200.009
12.7275	100.012	99.979	200.009
12.73	100.012	99.979	200.009
12.7325	100.012	99.979	200.009
12.735	100.012	99.9791	200.009
12.7375	100.012	99.9791	200.009
12.74	100.012	99.9791	200.009
12.7425	100.012	99.9792	200.009
12.745	100.012	99.9792	200.009
12.7475	100.012	99.9792	200.009
12.75	100.012	99.9793	200.009
12.7525	100.012	99.9793	200.008
12.755	100.012	99.9793	200.008
12.7575	100.012	99.9793	200.008
12.76	100.012	99.9794	200.008
12.7625	100.012	99.9794	200.008
12.765	100.012	99.9794	200.008
12.7675	100.012	99.9795	200.008
12.77	100.012	99.9795	200.008
12.7725	100.013	99.9795	200.008
12.775	100.013	99.9796	200.008
12.7775	100.013	99.9796	200.008
12.78	100.013	99.9796	200.008
12.7825	100.013	99.9797	200.008
12.785	100.013	99.9797	200.008
12.7875	100.013	99.9797	200.008
12.79	100.013	99.9798	200.008
12.7925	100.013	99.9798	200.007
12.795	100.013	99.9798	200.007
12.7975	100.013	99.9798	200.007
12.8	100.013	99.9799	200.007
12.8025	100.013	99.9799	200.007
12.805	100.013	99.9799	200.007
12.8075	100.013	99.98	200.007
12.81	100.013	99.98	200.007
12.8125	100.013	99.98	200.007
12.815	100.013	99.9801	200.007
12.8175	100.013	99.9801	200.007
12.82	100.013	99.9801	200.007
12.8225	100.013	99.9802	200.007
12.825	100.013	99.9802	200.007
12.8275	100.013	99.9802	200.007
12.83	100.013	99.9803	200.007
12.8325	100.013	99.9803	200.007
12.835	100.013	99.9803	200.006
12.8375	100.013	99.9804	200.006
12.84	100.013	99.9804	200.006
12.8425	100.013	99.9804	200.006
12.845	100.013	99.9805	200.006
12.8475	100.013	99.9805	200.006
12.85	100.013	99.9805	200.006
12.8525	100.013	99.9806	200.006
12.855	100.013	99.9806	200.006
12.8575	100.013	99.9806	200.006
12.86	100.013	99.9807	200.006
12.8625	100.013	99.9807	200.006
12.865	100.013	99.9807	200.006
12.8675	100.013	99.9808	200.006
12.87	100.014	99.9808	200.006
12.8725	100.014	99.9808	200.006
12.875	100.014	99.9809	200.006
12.8775	100.014	99.9809	200.006
12.88	100.014	99.9809	200.005
12.8825	100.014	99.981	200.005
12.885	100.014	99.981	200.005
12.8875	100.014	99.981	200.005
12.89	100.014	99.9811	200.005
12.8925	100.014	99.9811	200.005
12.895	100.014	99.9811	200.005
12.8975	100.014	99.9812	200.005
12.9	100.014	99.9812	200.005
12.9025	100.014	99.9812	200.005
12.905	100.014	99.9813	200.005
12.9075	100.014	99.9813	200.005
12.91	100.014	99.9813	200.005
12.9125	100.014	99.9814	200.005
12.915	100.014	99.9814	200.005
12.9175	100.014	99.9815	200.005
12.92	100.014	99.9815	200.005
12.9225	100.014	99.9815	200.005
12.925	100.014	99.9816	200.005
12.9275	100.014	99.9816	200.004
12.93	100.014	99.9816	200.004
12.9325	100.014	99.9817	200.004
12.935	100.014	99.9817	200.004
12.9375	100.014	99.9817	200.004
12.94	100.014	99.9818	200.004
12.9425	100.014	99.9818	200.004
12.945	100.014	99.9818	200.004
12.9475	100.014	99.9819	200.004
12.95	100.014	99.9819	200.004
12.9525	100.014	99.9819	200.004
12.955	100.014	99.982	200.004
12.9575	100.014	99.982	200.004
12.96	100.014	99.982	200.004
12.9625	100.014	99.9821	200.004
12.965	100.014	99.9821	200.004
12.9675	100.014	99.9822	200.004
12.97	100.014	99.9822	200.004
12.9725	100.014	99.9822	200.004
12.975	100.014	99.9823	200.004
12.9775	100.014	99.9823	200.003
12.98	100.014	99.9823	200.003
12.9825	100.014	99.9824	200.003
12.985	100.014	99.9824	200.003
12.9875	100.014	99.9824	200.003
12.99	100.014	99.9825	200.003
12.9925	100.014	99.9825	200.003
12.995	100.014	99.9825	200.003
12.9975	100.014	99.9826	200.003
13	100.014	99.9826	200.003
13.0025	100.014	99.9827	200.003
13.005	100.014	99.9827	200.003
13.0075	100.014	99.9827	200.003
13.01	100.014	99.9828	200.003
13.0125	100.014	99.9828	200.003
13.015	100.014	99.9828	200.003
13.0175	100.014	99.9829	200.003
13.02	100.014	99.9829	200.003
13.0225	100.014	99.9829	200.003
13.025	100.014	99.983	200.003
13.0275	100.014	99.983	200.003
13.03	100.014	99.983	200.002
13.0325	100.014	99.9831	200.002
13.035	100.014	99.9831	200.002
13.0375	100.015	99.9832	200.002
13.04	100.015	99.9832	200.002
13.0425	100.015	99.9832	200.002
13.045	100.015	99.9833	200.002
13.0475	100.015	99.9833	200.002
13.05	100.015	99.9833	200.002
13.0525	100.015	99.9834	200.002
13.055	100.015	99.9834	200.002
13.0575	100.015	99.9834	200.002
13.06	100.015	99.9835	200.002
13.0625	100.015	99.9835	200.002
13.065	100.015	99.9836	200.002
13.0675	100.015	99.9836	200.002
13.07	100.015	99.9836	200.002
13.0725	100.015	99.9837	200.002
13.075	100.015	99.9837	200.002
13.0775	100.015	99.9837	200.002
13.08	100.015	99.9838	200.002
13.0825	100.015	99.9838	200.002
13.085	100.015	99.9839	200.002
13.0875	100.015	99.9839	200.001
13.09	100.015	99.9839	200.001
13.0925	100.015	99.984	200.001
13.095	100.015	99.984	200.001
13.0975	100.015	99.984	200.001
13.1	100.015	99.9841	200.001
13.1025	100.015	99.9841	200.001
13.105	100.015	99.9841	200.001
13.1075	100.015	99.9842	200.001
13.11	100.015	99.9842	200.001
13.1125	100.015	99.9843	200.001
13.115	100.015	99.9843	200.001
13.1175	100.015	99.9843	200.001
13.12	100.015	99.9844	200.001
13.1225	100.015	99.9844	200.001
13.125	100.015	99.9844	200.001
13.1275	100.015	99.9845	200.001
13.13	100.015	99.9845	200.001
13.1325	100.015	99.9845	200.001
13.135	100.015	99.9846	200.001
13.1375	100.015	99.9846	200.001
13.14	100.015	99.9847	200.001
13.1425	100.015	99.9847	200.001
13.145	100.015	99.9847	200.001
13.1475	100.015	99.9848	200
13.15	100.015	99.9848	200
13.1525	100.015	99.9848	200
13.155	100.015	99.9849	200
13.1575	100.015	99.9849	200
13.16	100.015	99.985	200
13.1625	100.015	99.985	200
13.165	100.015	99.985	200
13.1675	100.015	99.9851	200
13.17	100.015	99.9851	200
13.1725	100.015	99.9851	200
13.175	100.015	99.9852	200
13.1775	100.015	99.9852	200
13.18	100.015	99.9852	200
13.1825	100.015	99.9853	200
13.185	100.015	99.9853	200
13.1875	100.015	99.9854	200
13.19	100.015	99.9854	200
13.1925	100.015	99.9854	200
13.195	100.015	99.9855	200
13.1975	100.015	99.9855	200
13.2	100.015	99.9855	200
13.2025	100.015	99.9856	200
13.205	100.015	99.9856	200
13.2075	100.015	99.9857	200
13.21	100.015	99.9857	200
13.2125	100.015	99.9857	200
13.215	100.015	99.9858	200
13.2175	100.015	99.9858	199.999
13.22	100.015	99.9858	199.999
13.2225	100.015	99.9859	199.999
13.225	100.015	99.9859	199.999
13.2275	100.015	99.9859	199.999
13.23	100.015	99.986	199.999
13.2325	100.015	99.986	199.999
13.235	100.015	99.9861	199.999
13.2375	100.015	99.9861	199.999
13.24	100.015	99.9861	199.999
13.2425	100.015	99.9862	199.999
13.245	100.015	99.9862	199.999
13.2475	100.015	99.9862	199.999
13.25	100.015	99.9863	199.999
13.2525	100.015	99.9863	199.999
13.255	100.015	99.9864	199.999
13.2575	100.015	99.9864	199.999
13.26	100.015	99.9864	199.999
13.2625	100.015	99.9865	199.999
13.265	100.015	99.9865	199.999
13.2675	100.015	99.9865	199.999
13.27	100.015	99.9866	199.999
13.2725	100.015	99.9866	199.999
13.275	100.015	99.9866	199.999
13.2775	100.015	99.9867	199.999
13.28	100.015	99.9867	199.999
13.2825	100.015	99.9868	199.999
13.285	100.015	99.9868	199.999
13.2875	100.015	99.9868	199.999
13.29	100.015	99.9869	199.999
13.2925	100.015	99.9869	199.998
13.295	100.015	99.9869	199.998
13.2975	100.015	99.987	199.998
13.3	100.015	99.987	199.998
13.3025	100.015	99.987	199.998
13.305	100.015	99.9871	199.998
13.3075	100.015	99.9871	199.998
13.31	100.015	99.9872	199.998
13.3125	100.015	99.9872	199.998
13.315	100.015	99.9872	199.998
13.3175	100.015	99.9873	199.998
13.32	100.015	99.9873	199.998
13.3225	100.015	99.9873	199.998
13.325	100.015	99.9874	199.998
13.3275	100.015	99.9874	199.998
13.33	100.015	99.9874	199.998
13.3325	100.015	99.9875	199.998
13.335	100.015	99.9875	199.998
13.3375	100.014	99.9876	199.998
13.34	100.014	99.9876	199.998
13.3425	100.014	99.9876	199.998
13.345	100.014	99.9877	199.998
13.3475	100.014	99.9877	199.998
13.35	100.014	99.9877	199.998
13.3525	100.014	99.9878	199.998
13.355	100.014	99.9878	199.998
13.3575	100.014	99.9878	199.998
13.36	100.014	99.9879	199.998
13.3625	100.014	99.9879	199.998
13.365	100.014	99.988	199.998
13.3675	100.014	99.988	199.998
13.37	100.014	99.988	199.998
13.3725	100.014	99.9881	199.998
13.375	100.014	99.9881	199.998
13.3775	100.014	99.9881	199.998
13.38	100.014	99.9882	199.997
13.3825	100.014	99.9882	199.997
13.385	100.014	99.9882	199.997
13.3875	100.014	99.9883	199.997
13.39	100.014	99.9883	199.997
13.3925	100.014	99.9883	199.997
13.395	100.014	99.9884	199.997
13.3975	100.014	99.9884	199.997
13.4	100.014	99.9885	199.997
13.4025	100.014	99.9885	199.997
13.405	100.014	99.9885	199.997
13.4075	100.014	99.9886	199.997
13.41	100.014	99.9886	199.997
13.4125	100.014	99.9886	199.997
13.415	100.014	99.9887	199.997
13.4175	100.014	99.9887	199.997
13.42	100.014	99.9887	199.997
13.4225	100.014	99.9888	199.997
13.425	100.014	99.9888	199.997
13.4275	100.014	99.9888	199.997
13.43	100.014	99.9889	199.997
13.4325	100.014	99.9889	199.997
13.435	100.014	99.989	199.997
13.4375	100.014	99.989	199.997
13.44	100.014	99.989	199.997
13.4425	100.014	99.9891	199.997
13.445	100.014	99.9891	199.997
13.4475	100.014	99.9891	199.997
13.45	100.014	99.9892	199.997
13.4525	100.014	99.9892	199.997
13.455	100.014	99.9892	199.997
13.4575	100.014	99.9893	199.997
13.46	100.014	99.9893	199.997
13.4625	100.014	99.9893	199.997
13.465	100.014	99.9894	199.997
13.4675	100.014	99.9894	199.997
13.47	100.014	99.9894	199.997
13.4725	100.014	99.9895	199.997
13.475	100.014	99.9895	199.997
13.4775	100.014	99.9895	199.997
13.48	100.014	99.9896	199.997
13.4825	100.014	99.9896	199.996
13.485	100.014	99.9897	199.996
13.4875	100.014	99.9897	199.996
13.49	100.014	99.9897	199.996
13.4925	100.014	99.9898	199.996
13.495	100.014	99.9898	199.996
13.4975	100.014	99.9898	199.996
13.5	100.014	99.9899	199.996
13.5025	100.014	99.9899	199.996
13.505	100.014	99.9899	199.996
13.5075	100.014	99.99	199.996
13.51	100.014	99.99	199.996
13.5125	100.014	99.99	199.996
13.515	100.014	99.9901	199.996
13.5175	100.014	99.9901	199.996
13.52	100.014	99.9901	199.996
13.5225	100.014	99.9902	199.996
13.525	100.014	99.9902	199.996
13.5275	100.014	99.9902	199.996
13.53	100.014	99.9903	199.996
13.5325	100.014	99.9903	199.996
13.535	100.014	99.9903	199.996
13.5375	100.014	99.9904	199.996
13.54	100.014	99.9904	199.996
13.5425	100.014	99.9904	199.996
13.545	100.014	99.9905	199.996
13.5475	100.014	99.9905	199.996
13.55	100.014	99.9905	199.996
13.5525	100.013	99.9906	199.996
13.555	100.013	99.9906	199.996
13.5575	100.013	99.9906	199.996
13.56	100.013	99.9907	199.996
13.5625	100.013	99.9907	199.996
13.565	100.013	99.9907	199.996
13.5675	100.013	99.9908	199.996
13.57	100.013	99.9908	199.996
13.5725	100.013	99.9908	199.996
13.575	100.013	99.9909	199.996
13.5775	100.013	99.9909	199.996
13.58	100.013	99.9909	199.996
13.5825	100.013	99.991	199.996
13.585	100.013	99.991	199.996
13.5875	100.013	99.991	199.996
13.59	100.013	99.9911	199.996
13.5925	100.013	99.9911	199.996
13.595	100.013	99.9911	199.996
13.5975	100.013	99.9912	199.996
13.6	100.013	99.9912	199.996
13.6025	100.013	99.9912	199.996
13.605	100.013	99.9913	199.996
13.6075	100.013	99.9913	199.996
13.61	100.013	99.9913	199.996
13.6125	100.013	99.9914	199.996
13.615	100.013	99.9914	199.996
13.6175	100.013	99.9914	199.995
13.62	100.013	99.9915	199.995
13.6225	100.013	99.9915	199.995
13.625	100.013	99.9915	199.995
13.6275	100.013	99.9916	199.995
13.63	100.013	99.9916	199.995
13.6325	100.013	99.9916	199.995
13.635	100.013	99.9917	199.995
13.6375	100.013	99.9917	199.995
13.64	100.013	99.9917	199.995
13.6425	100.013	99.9918	199.995
13.645	100.013	99.9918	199.995
13.6475	100.013	99.9918	199.995
13.65	100.013	99.9919	199.995
13.6525	100.013	99.9919	199.995
13.655	100.013	99.9919	199.995
13.6575	100.013	99.992	199.995
13.66	100.013	99.992	199.995
13.6625	100.013	99.992	199.995
13.665	100.013	99.9921	199.995
13.6675	100.013	99.9921	199.995
13.67	100.013	99.9921	199.995
13.6725	100.013	99.9921	199.995
13.675	100.013	99.9922	199.995
13.6775	100.013	99.9922	199.995
13.68	100.013	99.9922	199.995
13.6825	100.013	99.9923	199.995
13.685	100.013	99.9923	199.995
13.6875	100.013	99.9923	199.995
13.69	100.013	99.9924	199.995
13.6925	100.013	99.9924	199.995
13.695	100.013	99.9924	199.995
13.6975	100.012	99.9925	199.995
13.7	100.012	99.9925	199.995
13.7025	100.012	99.9925	199.995
13.705	100.012	99.9926	199.995
13.7075	100.012	99.9926	199.995
13.71	100.012	99.9926	199.995
13.7125	100.012	99.9926	199.995
13.715	100.012	99.9927	199.995
13.7175	100.012	99.9927	199.995
13.72	100.012	99.9927	199.995
13.7225	100.012	99.9928	199.995
13.725	100.012	99.9928	199.995
13.7275	100.012	99.9928	199.995
13.73	100.012	99.9929	199.995
13.7325	100.012	99.9929	199.995
13.735	100.012	99.9929	199.995
13.7375	100.012	99.993	199.995
13.74	100.012	99.993	199.995
13.7425	100.012	99.993	199.995
13.745	100.012	99.993	199.995
13.7475	100.012	99.9931	199.995
13.75	100.012	99.9931	199.995
13.7525	100.012	99.9931	199.995
13.755	100.012	99.9932	199.995
13.7575	100.012	99.9932	199.995
13.76	100.012	99.9932	199.995
13.7625	100.012	99.9933	199.995
13.765	100.012	99.9933	199.995
13.7675	100.012	99.9933	199.995
13.77	100.012	99.9933	199.995
13.7725	100.012	99.9934	199.995
13.775	100.012	99.9934	199.995
13.7775	100.012	99.9934	199.995
13.78	100.012	99.9935	199.995
13.7825	100.012	99.9935	199.995
13.785	100.012	99.9935	199.995
13.7875	100.012	99.9936	199.995
13.79	100.012	99.9936	199.995
13.7925	100.012	99.9936	199.995
13.795	100.012	99.9936	199.995
13.7975	100.012	99.9937	199.995
13.8	100.012	99.9937	199.995
13.8025	100.012	99.9937	199.995
13.805	100.012	99.9938	199.995
13.8075	100.012	99.9938	199.995
13.81	100.012	99.9938	199.995
13.8125	100.012	99.9938	199.995
13.815	100.012	99.9939	199.995
13.8175	100.012	99.9939	199.995
13.82	100.012	99.9939	199.995
13.8225	100.012	99.994	199.995
13.825	100.011	99.994	199.995
13.8275	100.011	99.994	199.995
13.83	100.011	99.994	199.994
13.8325	100.011	99.9941	199.994
13.835	100.011	99.9941	199.994
13.8375	100.011	99.9941	199.994
13.84	100.011	99.9942	199.994
13.8425	100.011	99.9942	199.994
13.845	100.011	99.9942	199.994
13.8475	100.011	99.9942	199.994
13.85	100.011	99.9943	199.994
13.8525	100.011	99.9943	199.994
13.855	100.011	99.9943	199.994
13.8575	100.011	99.9944	199.994
13.86	100.011	99.9944	199.994
13.8625	100.011	99.9944	199.994
13.865	100.011	99.9944	199.994
13.8675	100.011	99.9945	199.994
13.87	100.011	99.9945	199.994
13.8725	100.011	99.9945	199.994
13.875	100.011	99.9946	199.994
13.8775	100.011	99.9946	199.994
13.88	100.011	99.9946	199.994
13.8825	100.011	99.9946	199.994
13.885	100.011	99.9947	199.994
13.8875	100.011	99.9947	199.994
13.89	100.011	99.9947	199.994
13.8925	100.011	99.9947	199.994
13.895	100.011	99.9948	199.994
13.8975	100.011	99.9948	199.994
13.9	100.011	99.9948	199.994
13.9025	100.011	99.9949	199.994
13.905	100.011	99.9949	199.994
13.9075	100.011	99.9949	199.994
13.91	100.011	99.9949	199.994
13.9125	100.011	99.995	199.994
13.915	100.011	99.995	199.994
13.9175	100.011	99.995	199.994
13.92	100.011	99.995	199.994
13.9225	100.011	99.9951	199.994
13.925	100.011	99.9951	199.994
13.9275	100.011	99.9951	199.994
13.93	100.011	99.9952	199.994
13.9325	100.011	99.9952	199.994
13.935	100.011	99.9952	199.994
13.9375	100.011	99.9952	199.994
13.94	100.011	99.9953	199.994
13.9425	100.011	99.9953	199.994
13.945	100.01	99.9953	199.994
13.9475	100.01	99.9953	199.994
13.95	100.01	99.9954	199.994
13.9525	100.01	99.9954	199.994
13.955	100.01	99.9954	199.994
13.9575	100.01	99.9954	199.994
13.96	100.01	99.9955	199.994
13.9625	100.01	99.9955	199.994
13.965	100.01	99.9955	199.994
13.9675	100.01	99.9955	199.994
13.97	100.01	99.9956	199.994
13.9725	100.01	99.9956	199.994
13.975	100.01	99.9956	199.994
13.9775	100.01	99.9956	199.994
13.98	100.01	99.9957	199.994
13.9825	100.01	99.9957	199.994
13.985	100.01	99.9957	199.994
13.9875	100.01	99.9957	199.994
13.99	100.01	99.9958	199.994
13.9925	100.01	99.9958	199.994
13.995	100.01	99.9958	199.994
13.9975	100.01	99.9958	199.994
14	100.01	99.9959	199.994
14.0025	100.01	99.9959	199.994
14.005	100.01	99.9959	199.994
14.0075	100.01	99.9959	199.994
14.01	100.01	99.996	199.994
14.0125	100.01	99.996	199.994
14.015	100.01	99.996	199.994
14.0175	100.01	99.996	199.994
14.02	100.01	99.9961	199.994
14.0225	100.01	99.9961	199.994
14.025	100.01	99.9961	199.994
14.0275	100.01	99.9961	199.994
14.03	100.01	99.9962	199.994
14.0325	100.01	99.9962	199.994
14.035	100.01	99.9962	199.994
14.0375	100.01	99.9962	199.994
14.04	100.01	99.9963	199.994
14.0425	100.01	99.9963	199.994
14.045	100.01	99.9963	199.994
14.0475	100.01	99.9963	199.994
14.05	100.01	99.9964	199.994
14.0525	100.01	99.9964	199.994
14.055	100.01	99.9964	199.994
14.0575	100.009	99.9964	199.994
14.06	100.009	99.9965	199.994
14.0625	100.009	99.9965	199.994
14.065	100.009	99.9965	199.994
14.0675	100.009	99.9965	199.994
14.07	100.009	99.9966	199.994
14.0725	100.009	99.9966	199.994
14.075	100.009	99.9966	199.994
14.0775	100.009	99.9966	199.994
14.08	100.009	99.9966	199.994
14.0825	100.009	99.9967	199.994
14.085	100.009	99.9967	199.994
14.0875	100.009	99.9967	199.994
14.09	100.009	99.9967	199.994
14.0925	100.009	99.9968	199.994
14.095	100.009	99.9968	199.994
14.0975	100.009	99.9968	199.994
14.1	100.009	99.9968	199.994
14.1025	100.009	99.9969	199.994
14.105	100.009	99.9969	199.994
14.1075	100.009	99.9969	199.994
14.11	100.009	99.9969	199.994
14.1125	100.009	99.9969	199.994
14.115	100.009	99.997	199.994
14.1175	100.009	99.997	199.994
14.12	100.009	99.997	199.994
14.1225	100.009	99.997	199.994
14.125	100.009	99.9971	199.994
14.1275	100.009	99.9971	199.994
14.13	100.009	99.9971	199.994
14.1325	100.009	99.9971	199.994
14.135	100.009	99.9971	199.994
14.1375	100.009	99.9972	199.994
14.14	100.009	99.9972	199.994
14.1425	100.009	99.9972	199.994
14.145	100.009	99.9972	199.994
14.1475	100.009	99.9973	199.994
14.15	100.009	99.9973	199.994
14.1525	100.009	99.9973	199.994
14.155	100.009	99.9973	199.994
14.1575	100.009	99.9973	199.994
14.16	100.009	99.9974	199.994
14.1625	100.009	99.9974	199.994
14.165	100.009	99.9974	199.994
14.1675	100.009	99.9974	199.994
14.17	100.008	99.9974	199.994
14.1725	100.008	99.9975	199.994
14.175	100.008	99.9975	199.994
14.1775	100.008	99.9975	199.994
14.18	100.008	99.9975	199.994
14.1825	100.008	99.9976	199.994
14.185	100.008	99.9976	199.994
14.1875	100.008	99.9976	199.994
14.19	100.008	99.9976	199.994
14.1925	100.008	99.9976	199.994
14.195	100.008	99.9977	199.994
14.1975	100.008	99.9977	199.994
14.2	100.008	99.9977	199.994
14.2025	100.008	99.9977	199.994
14.205	100.008	99.9977	199.994
14.2075	100.008	99.9978	199.994
14.21	100.008	99.9978	199.994
14.2125	100.008	99.9978	199.994
14.215	100.008	99.9978	199.994
14.2175	100.008	99.9978	199.994
14.22	100.008	99.9979	199.994
14.2225	100.008	99.9979	199.994
14.225	100.008	99.9979	199.994
14.2275	100.008	99.9979	199.994
14.23	100.008	99.9979	199.994
14.2325	100.008	99.998	199.994
14.235	100.008	99.998	199.994
14.2375	100.008	99.998	199.994
14.24	100.008	99.998	199.994
14.2425	100.008	99.998	199.994
14.245	100.008	99.9981	199.994
14.2475	100.008	99.9981	199.994
14.25	100.008	99.9981	199.994
14.2525	100.008	99.9981	199.994
14.255	100.008	99.9981	199.994
14.2575	100.008	99.9982	199.994
14.26	100.008	99.9982	199.994
14.2625	100.008	99.9982	199.994
14.265	100.008	99.9982	199.994
14.2675	100.008	99.9982	199.994
14.27	100.008	99.9982	199.994
14.2725	100.008	99.9983	199.994
14.275	100.008	99.9983	199.994
14.2775	100.008	99.9983	199.994
14.28	100.008	99.9983	199.994
14.2825	100.007	99.9983	199.994
14.285	100.007	99.9984	199.994
14.2875	100.007	99.9984	199.994
14.29	100.007	99.9984	199.994
14.2925	100.007	99.9984	199.994
14.295	100.007	99.9984	199.994
14.2975	100.007	99.9985	199.994
14.3	100.007	99.9985	199.994
14.3025	100.007	99.9985	199.994
14.305	100.007	99.9985	199.994
14.3075	100.007	99.9985	199.994
14.31	100.007	99.9985	199.994
14.3125	100.007	99.9986	199.994
14.315	100.007	99.9986	199.994
14.3175	100.007	99.9986	199.994
14.32	100.007	99.9986	199.994
14.3225	100.007	99.9986	199.994
14.325	100.007	99.9987	199.994
14.3275	100.007	99.9987	199.994
14.33	100.007	99.9987	199.994
14.3325	100.007	99.9987	199.994
14.335	100.007	99.9987	199.994
14.3375	100.007	99.9987	199.994
14.34	100.007	99.9988	199.994
14.3425	100.007	99.9988	199.994
14.345	100.007	99.9988	199.994
14.3475	100.007	99.9988	199.994
14.35	100.007	99.9988	199.994
14.3525	100.007	99.9988	199.994
14.355	100.007	99.9989	199.994
14.3575	100.007	99.9989	199.994
14.36	100.007	99.9989	199.994
14.3625	100.007	99.9989	199.994
14.365	100.007	99.9989	199.994
14.3675	100.007	99.9989	199.994
14.37	100.007	99.999	199.994
14.3725	100.007	99.999	199.994
14.375	100.007	99.999	199.994
14.3775	100.007	99.999	199.994
14.38	100.007	99.999	199.994
14.3825	100.007	99.9991	199.994
14.385	100.007	99.9991	199.994
14.3875	100.007	99.9991	199.994
14.39	100.007	99.9991	199.994
14.3925	100.007	99.9991	199.994
14.395	100.007	99.9991	199.994
14.3975	100.007	99.9991	199.994
14.4	100.006	99.9992	199.994
14.4025	100.006	99.9992	199.994
14.405	100.006	99.9992	199.994
14.4075	100.006	99.9992	199.994
14.41	100.006	99.9992	199.994
14.4125	100.006	99.9992	199.994
14.415	100.006	99.9993	199.994
14.4175	100.006	99.9993	199.994
14.42	100.006	99.9993	199.994
14.4225	100.006	99.9993	199.994
14.425	100.006	99.9993	199.994
14.4275	100.006	99.9993	199.994
14.43	100.006	99.9994	199.994
14.4325	100.006	99.9994	199.994
14.435	100.006	99.9994	199.994
14.4375	100.006	99.9994	199.994
14.44	100.006	99.9994	199.994
14.4425	100.006	99.9994	199.994
14.445	100.006	99.9994	199.994
14.4475	100.006	99.9995	199.994
14.45	100.006	99.9995	199.994
14.4525	100.006	99.9995	199.994
14.455	100.006	99.9995	199.994
14.4575	100.006	99.9995	199.994
14.46	100.006	99.9995	199.994
14.4625	100.006	99.9996	199.994
14.465	100.006	99.9996	199.994
14.4675	100.006	99.9996	199.995
14.47	100.006	99.9996	199.995
14.4725	100.006	99.9996	199.995
14.475	100.006	99.9996	199.995
14.4775	100.006	99.9996	199.995
14.48	100.006	99.9997	199.995
14.4825	100.006	99.9997	199.995
14.485	100.006	99.9997	199.995
14.4875	100.006	99.9997	199.995
14.49	100.006	99.9997	199.995
14.4925	100.006	99.9997	199.995
14.495	100.006	99.9997	199.995
14.4975	100.006	99.9998	199.995
14.5	100.006	99.9998	199.995
14.5025	100.006	99.9998	199.995
14.505	100.006	99.9998	199.995
14.5075	100.006	99.9998	199.995
14.51	100.006	99.9998	199.995
14.5125	100.006	99.9998	199.995
14.515	100.006	99.9999	199.995
14.5175	100.006	99.9999	199.995
14.52	100.005	99.9999	199.995
14.5225	100.005	99.9999	199.995
14.525	100.005	99.9999	199.995
14.5275	100.005	99.9999	199.995
14.53	100.005	99.9999	199.995
14.5325	100.005	100	199.995
14.535	100.005	100	199.995
14.5375	100.005	100	199.995
14.54	100.005	100	199.995
14.5425	100.005	100	199.995
14.545	100.005	100	199.995
14.5475	100.005	100	199.995
14.55	100.005	100	199.995
14.5525	100.005	100	199.995
14.555	100.005	100	199.995
14.5575	100.005	100	199.995
14.56	100.005	100	199.995
14.5625	100.005	100	199.995
14.565	100.005	100	199.995
14.5675	100.005	100	199.995
14.57	100.005	100	199.995
14.5725	100.005	100	199.995
14.575	100.005	100	199.995
14.5775	100.005	100	199.995
14.58	100.005	100	199.995
14.5825	100.005	100	199.995
14.585	100.005	100	199.995
14.5875	100.005	100	199.995
14.59	100.005	100	199.995
14.5925	100.005	100	199.995
14.595	100.005	100	199.995
14.5975	100.005	100	199.995
14.6	100.005	100	199.995
14.6025	100.005	100	199.995
14.605	100.005	100	199.995
14.6075	100.005	100	199.995
14.61	100.005	100	199.995
14.6125	100.005	100	199.995
14.615	100.005	100	199.995
14.6175	100.005	100	199.995
14.62	100.005	100	199.995
14.6225	100.005	100	199.995
14.625	100.005	100	199.995
14.6275	100.005	100	199.995
14.63	100.005	100	199.995
14.6325	100.005	100	199.995
14.635	100.005	100	199.995
14.6375	100.005	100	199.995
14.64	100.005	100	199.995
14.6425	100.005	100	199.995
14.645	100.005	100.001	199.995
14.6475	100.004	100.001	199.995
14.65	100.004	100.001	199.995
14.6525	100.004	100.001	199.995
14.655	100.004	100.001	199.995
14.6575	100.004	100.001	199.995
14.66	100.004	100.001	199.995
14.6625	100.004	100.001	199.995
14.665	100.004	100.001	199.995
14.6675	100.004	100.001	199.995
14.67	100.004	100.001	199.995
14.6725	100.004	100.001	199.995
14.675	100.004	100.001	199.995
14.6775	100.004	100.001	199.995
14.68	100.004	100.001	199.995
14.6825	100.004	100.001	199.995
14.685	100.004	100.001	199.995
14.6875	100.004	100.001	199.995
14.69	100.004	100.001	199.995
14.6925	100.004	100.001	199.995
14.695	100.004	100.001	199.995
14.6975	100.004	100.001	199.995
14.7	100.004	100.001	199.995
14.7025	100.004	100.001	199.995
14.705	100.004	100.001	199.995
14.7075	100.004	100.001	199.995
14.71	100.004	100.001	199.995
14.7125	100.004	100.001	199.995
14.715	100.004	100.001	199.995
14.7175	100.004	100.001	199.995
14.72	100.004	100.001	199.995
14.7225	100.004	100.001	199.995
14.725	100.004	100.001	199.995
14.7275	100.004	100.001	199.995
14.73	100.004	100.001	199.995
14.7325	100.004	100.001	199.995
14.735	100.004	100.001	199.995
14.7375	100.004	100.001	199.995
14.74	100.004	100.001	199.995
14.7425	100.004	100.001	199.995
14.745	100.004	100.001	199.995
14.7475	100.004	100.001	199.995
14.75	100.004	100.001	199.995
14.7525	100.004	100.001	199.995
14.755	100.004	100.001	199.995
14.7575	100.004	100.001	199.995
14.76	100.004	100.001	199.995
14.7625	100.004	100.001	199.995
14.765	100.004	100.001	199.995
14.7675	100.004	100.001	199.995
14.77	100.004	100.001	199.995
14.7725	100.004	100.001	199.995
14.775	100.004	100.001	199.995
14.7775	100.004	100.001	199.995
14.78	100.004	100.001	199.995
14.7825	100.004	100.001	199.995
14.785	100.004	100.001	199.995
14.7875	100.003	100.001	199.995
14.79	100.003	100.001	199.995
14.7925	100.003	100.001	199.995
14.795	100.003	100.001	199.995
14.7975	100.003	100.001	199.995
14.8	100.003	100.001	199.995
14.8025	100.003	100.001	199.995
14.805	100.003	100.001	199.995
14.8075	100.003	100.001	199.996
14.81	100.003	100.001	199.996
14.8125	100.003	100.001	199.996
14.815	100.003	100.001	199.996
14.8175	100.003	100.001	199.996
14.82	100.003	100.001	199.996
14.8225	100.003	100.001	199.996
14.825	100.003	100.001	199.996
14.8275	100.003	100.001	199.996
14.83	100.003	100.001	199.996
14.8325	100.003	100.001	199.996
14.835	100.003	100.001	199.996
14.8375	100.003	100.001	199.996
14.84	100.003	100.001	199.996
14.8425	100.003	100.001	199.996
14.845	100.003	100.001	199.996
14.8475	100.003	100.001	199.996
14.85	100.003	100.001	199.996
14.8525	100.003	100.001	199.996
14.855	100.003	100.001	199.996
14.8575	100.003	100.001	199.996
14.86	100.003	100.001	199.996
14.8625	100.003	100.001	199.996
14.865	100.003	100.001	199.996
14.8675	100.003	100.001	199.996
14.87	100.003	100.001	199.996
14.8725	100.003	100.001	199.996
14.875	100.003	100.001	199.996
14.8775	100.003	100.001	199.996
14.88	100.003	100.001	199.996
14.8825	100.003	100.001	199.996
14.885	100.003	100.001	199.996
14.8875	100.003	100.001	199.996
14.89	100.003	100.001	199.996
14.8925	100.003	100.001	199.996
14.895	100.003	100.001	199.996
14.8975	100.003	100.001	199.996
14.9	100.003	100.001	199.996
14.9025	100.003	100.001	199.996
14.905	100.003	100.001	199.996
14.9075	100.003	100.001	199.996
14.91	100.003	100.001	199.996
14.9125	100.003	100.001	199.996
14.915	100.003	100.001	199.996
14.9175	100.003	100.001	199.996
14.92	100.003	100.001	199.996
14.9225	100.003	100.001	199.996
14.925	100.003	100.001	199.996
14.9275	100.003	100.001	199.996
14.93	100.003	100.002	199.996
14.9325	100.003	100.002	199.996
14.935	100.003	100.002	199.996
14.9375	100.003	100.002	199.996
14.94	100.003	100.002	199.996
14.9425	100.002	100.002	199.996
14.945	100.002	100.002	199.996
14.9475	100.002	100.002	199.996
14.95	100.002	100.002	199.996
14.9525	100.002	100.002	199.996
14.955	100.002	100.002	199.996
14.9575	100.002	100.002	199.996
14.96	100.002	100.002	199.996
14.9625	100.002	100.002	199.996
14.965	100.002	100.002	199.996
14.9675	100.002	100.002	199.996
14.97	100.002	100.002	199.996
14.9725	100.002	100.002	199.996
14.975	100.002	100.002	199.996
14.9775	100.002	100.002	199.996
14.98	100.002	100.002	199.996
14.9825	100.002	100.002	199.996
14.985	100.002	100.002	199.996
14.9875	100.002	100.002	199.996
14.99	100.002	100.002	199.996
14.9925	100.002	100.002	199.996
14.995	100.002	100.002	199.996
14.9975	100.002	100.002	199.996
15	100.002	100.002	199.996
