# N = 400
# (S0, I0, R0) = (390, 5, 5)
# (a, b, c) = (4, 1, 0.5)
# time, S, I, R
0	390	5	5
0.0025	389.957	5.03638	5.00629
0.005	389.914	5.07302	5.01267
0.0075	389.871	5.10992	5.01912
0.01	389.827	5.14708	5.02567
0.0125	389.783	5.1845	5.0323
0.015	389.739	5.2222	5.03901
0.0175	389.694	5.26016	5.04581
0.02	389.649	5.29839	5.0527
0.0225	389.603	5.33689	5.05967
0.025	389.558	5.37567	5.06673
0.0275	389.511	5.41472	5.07388
0.03	389.465	5.45405	5.08112
0.0325	389.418	5.49366	5.08845
0.035	389.371	5.53355	5.09587
0.0375	389.323	5.57372	5.10338
0.04	389.275	5.61418	5.11098
0.0425	389.226	5.65492	5.11867
0.045	389.178	5.69595	5.12646
0.0475	389.128	5.73728	5.13433
0.05	389.079	5.7789	5.14231
0.0525	389.029	5.82081	5.15037
0.055	388.978	5.86301	5.15853
0.0575	388.928	5.90552	5.16679
0.06	388.877	5.94833	5.17514
0.0625	388.825	5.99144	5.1836
0.065	388.773	6.03485	5.19214
0.0675	388.721	6.07857	5.20079
0.07	388.668	6.1226	5.20953
0.0725	388.615	6.16694	5.21838
0.075	388.561	6.2116	5.22732
0.0775	388.507	6.25656	5.23637
0.08	388.453	6.30185	5.24551
0.0825	388.398	6.34745	5.25476
0.085	388.343	6.39338	5.26411
0.0875	388.287	6.43963	5.27357
0.09	388.231	6.4862	5.28313
0.0925	388.174	6.5331	5.29279
0.095	388.117	6.58033	5.30256
0.0975	388.06	6.6279	5.31244
0.1	388.002	6.6758	5.32242
0.1025	387.943	6.72403	5.33251
0.105	387.885	6.7726	5.34271
0.1075	387.825	6.82152	5.35302
0.11	387.766	6.87077	5.36343
0.1125	387.706	6.92037	5.37396
0.115	387.645	6.97032	5.3846
0.1175	387.584	7.02062	5.39535
0.12	387.523	7.07128	5.40622
0.1225	387.461	7.12228	5.41719
0.125	387.398	7.17364	5.42828
0.1275	387.335	7.22537	5.43949
0.13	387.272	7.27745	5.45081
0.1325	387.208	7.3299	5.46225
0.135	387.143	7.38271	5.47381
0.1375	387.079	7.43589	5.48548
0.14	387.013	7.48944	5.49727
0.1425	386.947	7.54337	5.50918
0.145	386.881	7.59767	5.52122
0.1475	386.814	7.65235	5.53337
0.15	386.747	7.70741	5.54564
0.1525	386.679	7.76285	5.55804
0.155	386.611	7.81868	5.57056
0.1575	386.542	7.8749	5.58321
0.16	386.473	7.93151	5.59598
0.1625	386.403	7.98851	5.60888
0.165	386.332	8.0459	5.6219
0.1675	386.261	8.1037	5.63505
0.17	386.19	8.16189	5.64833
0.1725	386.118	8.22049	5.66174
0.175	386.045	8.27949	5.67528
0.1775	385.972	8.33891	5.68895
0.18	385.899	8.39873	5.70275
0.1825	385.824	8.45897	5.71669
0.185	385.75	8.51962	5.73076
0.1875	385.674	8.58069	5.74496
0.19	385.599	8.64218	5.7593
0.1925	385.522	8.7041	5.77377
0.195	385.445	8.76644	5.78838
0.1975	385.368	8.82922	5.80313
0.2	385.29	8.89242	5.81802
0.2025	385.211	8.95606	5.83305
0.205	385.132	9.02014	5.84822
0.2075	385.052	9.08466	5.86353
0.21	384.971	9.14962	5.87898
0.2125	384.89	9.21503	5.89458
0.215	384.809	9.28088	5.91032
0.2175	384.727	9.34719	5.92621
0.22	384.644	9.41395	5.94224
0.2225	384.56	9.48117	5.95842
0.225	384.476	9.54885	5.97475
0.2275	384.392	9.61699	5.99123
0.23	384.307	9.6856	6.00786
0.2325	384.221	9.75468	6.02464
0.235	384.134	9.82422	6.04157
0.2375	384.047	9.89425	6.05866
0.24	383.959	9.96475	6.07589
0.2425	383.871	10.0357	6.09329
0.245	383.782	10.1072	6.11084
0.2475	383.692	10.1791	6.12855
0.25	383.602	10.2516	6.14641
0.2525	383.511	10.3245	6.16444
0.255	383.419	10.3979	6.18263
0.2575	383.327	10.4719	6.20097
0.26	383.234	10.5463	6.21948
0.2625	383.141	10.6212	6.23816
0.265	383.046	10.6966	6.25699
0.2675	382.951	10.7726	6.276
0.27	382.856	10.849	6.29517
0.2725	382.759	10.926	6.3145
0.275	382.662	11.0035	6.33401
0.2775	382.565	11.0815	6.35369
0.28	382.466	11.1601	6.37353
0.2825	382.367	11.2392	6.39355
0.285	382.267	11.3188	6.41375
0.2875	382.167	11.3989	6.43411
0.29	382.066	11.4796	6.45465
0.2925	381.964	11.5608	6.47537
0.295	381.861	11.6426	6.49627
0.2975	381.758	11.7249	6.51735
0.3	381.654	11.8077	6.5386
0.3025	381.549	11.8912	6.56004
0.305	381.443	11.9751	6.58166
0.3075	381.337	12.0597	6.60346
0.31	381.23	12.1448	6.62545
0.3125	381.122	12.2305	6.64762
0.315	381.013	12.3167	6.66998
0.3175	380.904	12.4035	6.69253
0.32	380.794	12.4909	6.71527
0.3225	380.683	12.5789	6.7382
0.325	380.571	12.6674	6.76132
0.3275	380.459	12.7566	6.78463
0.33	380.346	12.8463	6.80814
0.3325	380.232	12.9367	6.83184
0.335	380.117	13.0276	6.85574
0.3375	380.001	13.1191	6.87984
0.34	379.885	13.2113	6.90414
0.3425	379.767	13.304	6.92863
0.345	379.649	13.3974	6.95334
0.3475	379.53	13.4913	6.97824
0.35	379.411	13.5859	7.00335
0.3525	379.29	13.6811	7.02866
0.355	379.169	13.777	7.05418
0.3575	379.047	13.8734	7.07991
0.36	378.924	13.9705	7.10585
0.3625	378.8	14.0683	7.132
0.365	378.675	14.1666	7.15836
0.3675	378.549	14.2657	7.18493
0.37	378.423	14.3653	7.21172
0.3725	378.296	14.4656	7.23873
0.375	378.167	14.5666	7.26596
0.3775	378.038	14.6682	7.2934
0.38	377.908	14.7705	7.32106
0.3825	377.778	14.8735	7.34895
0.385	377.646	14.9771	7.37706
0.3875	377.513	15.0814	7.40539
0.39	377.38	15.1864	7.43395
0.3925	377.245	15.292	7.46274
0.395	377.11	15.3984	7.49176
0.3975	376.974	15.5054	7.521
0.4	376.836	15.6131	7.55048
0.4025	376.698	15.7215	7.58019
0.405	376.559	15.8306	7.61014
0.4075	376.419	15.9404	7.64032
0.41	376.278	16.0509	7.67074
0.4125	376.136	16.1621	7.7014
0.415	375.994	16.2741	7.7323
0.4175	375.85	16.3867	7.76344
0.42	375.705	16.5001	7.79482
0.4225	375.559	16.6142	7.82645
0.425	375.413	16.729	7.85833
0.4275	375.265	16.8445	7.89045
0.43	375.116	16.9608	7.92282
0.4325	374.967	17.0778	7.95545
0.435	374.816	17.1956	7.98832
0.4375	374.664	17.3141	8.02145
0.44	374.512	17.4334	8.05484
0.4425	374.358	17.5534	8.08848
0.445	374.203	17.6742	8.12238
0.4475	374.048	17.7957	8.15655
0.45	373.891	17.918	8.19097
0.4525	373.733	18.0411	8.22566
0.455	373.574	18.1649	8.26061
0.4575	373.415	18.2896	8.29583
0.46	373.254	18.415	8.33132
0.4625	373.092	18.5412	8.36708
0.465	372.929	18.6681	8.40311
0.4675	372.765	18.7959	8.43941
0.47	372.6	18.9245	8.47599
0.4725	372.433	19.0539	8.51285
0.475	372.266	19.184	8.54998
0.4775	372.098	19.315	8.58739
0.48	371.928	19.4468	8.62508
0.4825	371.758	19.5794	8.66306
0.485	371.586	19.7129	8.70132
0.4875	371.413	19.8471	8.73987
0.49	371.239	19.9822	8.77871
0.4925	371.064	20.1181	8.81784
0.495	370.888	20.2549	8.85726
0.4975	370.711	20.3924	8.89697
0.5	370.532	20.5309	8.93698
0.5025	370.353	20.6702	8.97728
0.505	370.172	20.8103	9.01788
0.5075	369.99	20.9513	9.05879
0.51	369.807	21.0931	9.09999
0.5125	369.623	21.2358	9.1415
0.515	369.437	21.3794	9.18332
0.5175	369.251	21.5238	9.22544
0.52	369.063	21.6692	9.26787
0.5225	368.874	21.8154	9.31062
0.525	368.684	21.9624	9.35367
0.5275	368.493	22.1104	9.39705
0.53	368.3	22.2593	9.44073
0.5325	368.106	22.409	9.48474
0.535	367.911	22.5597	9.52907
0.5375	367.715	22.7112	9.57372
0.54	367.518	22.8637	9.61869
0.5425	367.319	23.017	9.66399
0.545	367.119	23.1713	9.70961
0.5475	366.918	23.3265	9.75557
0.55	366.716	23.4826	9.80186
0.5525	366.512	23.6397	9.84848
0.555	366.307	23.7976	9.89543
0.5575	366.101	23.9565	9.94273
0.56	365.893	24.1164	9.99036
0.5625	365.685	24.2772	10.0383
0.565	365.474	24.4389	10.0867
0.5675	365.263	24.6016	10.1353
0.57	365.05	24.7652	10.1843
0.5725	364.837	24.9298	10.2337
0.575	364.621	25.0953	10.2834
0.5775	364.405	25.2618	10.3334
0.58	364.187	25.4293	10.3839
0.5825	363.968	25.5977	10.4346
0.585	363.747	25.7671	10.4858
0.5875	363.525	25.9375	10.5373
0.59	363.302	26.1089	10.5891
0.5925	363.077	26.2812	10.6413
0.595	362.852	26.4546	10.6939
0.5975	362.624	26.6289	10.7469
0.6	362.396	26.8042	10.8002
0.6025	362.166	26.9806	10.8539
0.605	361.934	27.1579	10.908
0.6075	361.701	27.3363	10.9624
0.61	361.467	27.5156	11.0172
0.6125	361.232	27.696	11.0724
0.615	360.995	27.8774	11.128
0.6175	360.756	28.0598	11.184
0.62	360.516	28.2432	11.2404
0.6225	360.275	28.4277	11.2971
0.625	360.033	28.6131	11.3543
0.6275	359.789	28.7997	11.4118
0.63	359.543	28.9872	11.4697
0.6325	359.296	29.1758	11.5281
0.635	359.048	29.3655	11.5868
0.6375	358.798	29.5562	11.6459
0.64	358.547	29.7479	11.7055
0.6425	358.294	29.9408	11.7654
0.645	358.04	30.1346	11.8257
0.6475	357.784	30.3296	11.8865
0.65	357.527	30.5255	11.9477
0.6525	357.268	30.7226	12.0093
0.655	357.008	30.9207	12.0713
0.6575	356.746	31.12	12.1337
0.66	356.483	31.3202	12.1965
0.6625	356.219	31.5216	12.2598
0.665	355.952	31.7241	12.3235
0.6675	355.685	31.9276	12.3876
0.67	355.416	32.1322	12.4522
0.6725	355.145	32.338	12.5171
0.675	354.873	32.5448	12.5826
0.6775	354.599	32.7527	12.6484
0.68	354.324	32.9617	12.7147
0.6825	354.047	33.1718	12.7814
0.685	353.768	33.3831	12.8486
0.6875	353.488	33.5954	12.9162
0.69	353.207	33.8089	12.9843
0.6925	352.924	34.0234	13.0528
0.695	352.639	34.2391	13.1218
0.6975	352.353	34.4559	13.1912
0.7	352.065	34.6739	13.2611
0.7025	351.776	34.893	13.3314
0.705	351.485	35.1131	13.4022
0.7075	351.192	35.3345	13.4735
0.71	350.898	35.5569	13.5452
0.7125	350.602	35.7805	13.6174
0.715	350.305	36.0053	13.6901
0.7175	350.006	36.2311	13.7632
0.72	349.705	36.4582	13.8368
0.7225	349.403	36.6863	13.9109
0.725	349.099	36.9156	13.9855
0.7275	348.793	37.1461	14.0605
0.73	348.486	37.3777	14.136
0.7325	348.177	37.6105	14.2121
0.735	347.867	37.8444	14.2886
0.7375	347.555	38.0795	14.3656
0.74	347.241	38.3158	14.4431
0.7425	346.926	38.5532	14.521
0.745	346.609	38.7918	14.5995
0.7475	346.29	39.0315	14.6785
0.75	345.97	39.2724	14.758
0.7525	345.648	39.5145	14.838
0.755	345.324	39.7577	14.9185
0.7575	344.998	40.0022	14.9995
0.76	344.671	40.2478	15.081
0.7625	344.342	40.4945	15.163
0.765	344.012	40.7425	15.2455
0.7675	343.68	40.9916	15.3286
0.77	343.346	41.2419	15.4122
0.7725	343.01	41.4934	15.4963
0.775	342.673	41.7461	15.5809
0.7775	342.334	42	15.666
0.78	341.993	42.255	15.7517
0.7825	341.651	42.5112	15.8379
0.785	341.307	42.7686	15.9247
0.7875	340.961	43.0272	16.012
0.79	340.613	43.287	16.0998
0.7925	340.264	43.548	16.1882
0.795	339.913	43.8102	16.2771
0.7975	339.56	44.0735	16.3665
0.8	339.205	44.3381	16.4565
0.8025	338.849	44.6038	16.5471
0.805	338.491	44.8708	16.6382
0.8075	338.131	45.1389	16.7298
0.81	337.77	45.4082	16.822
0.8125	337.406	45.6787	16.9148
0.815	337.041	45.9504	17.0081
0.8175	336.675	46.2233	17.102
0.82	336.306	46.4974	17.1965
0.8225	335.936	46.7727	17.2915
0.825	335.564	47.0492	17.3871
0.8275	335.19	47.3269	17.4833
0.83	334.814	47.6057	17.5801
0.8325	334.437	47.8858	17.6774
0.835	334.058	48.167	17.7753
0.8375	333.677	48.4495	17.8738
0.84	333.294	48.7331	17.9729
0.8425	332.91	49.0179	18.0725
0.845	332.523	49.304	18.1728
0.8475	332.135	49.5912	18.2736
0.85	331.745	49.8795	18.375
0.8525	331.354	50.1691	18.4771
0.855	330.96	50.4599	18.5797
0.8575	330.565	50.7518	18.6829
0.86	330.168	51.045	18.7868
0.8625	329.77	51.3393	18.8912
0.865	329.369	51.6348	18.9962
0.8675	328.967	51.9315	19.1019
0.87	328.563	52.2293	19.2081
0.8725	328.157	52.5283	19.315
0.875	327.749	52.8285	19.4225
0.8775	327.34	53.1299	19.5306
0.88	326.928	53.4325	19.6393
0.8825	326.515	53.7362	19.7486
0.885	326.1	54.0411	19.8586
0.8875	325.684	54.3471	19.9692
0.89	325.265	54.6543	20.0804
0.8925	324.845	54.9627	20.1923
0.895	324.423	55.2722	20.3048
0.8975	323.999	55.5829	20.4179
0.9	323.574	55.8948	20.5316
0.9025	323.146	56.2077	20.646
0.905	322.717	56.5219	20.761
0.9075	322.286	56.8372	20.8767
0.91	321.853	57.1536	20.993
0.9125	321.419	57.4711	21.11
0.915	320.983	57.7898	21.2276
0.9175	320.544	58.1097	21.3459
0.92	320.105	58.4306	21.4648
0.9225	319.663	58.7527	21.5844
0.925	319.219	59.0759	21.7046
0.9275	318.774	59.4002	21.8255
0.93	318.327	59.7257	21.947
0.9325	317.879	60.0522	22.0693
0.935	317.428	60.3799	22.1921
0.9375	316.976	60.7086	22.3157
0.94	316.522	61.0385	22.4399
0.9425	316.066	61.3694	22.5648
0.945	315.608	61.7015	22.6903
0.9475	315.149	62.0346	22.8166
0.95	314.688	62.3688	22.9435
0.9525	314.225	62.7041	23.071
0.955	313.76	63.0404	23.1993
0.9575	313.294	63.3779	23.3282
0.96	312.826	63.7164	23.4579
0.9625	312.356	64.0559	23.5882
0.965	311.884	64.3965	23.7192
0.9675	311.411	64.7381	23.8509
0.97	310.936	65.0808	23.9832
0.9725	310.459	65.4245	24.1163
0.975	309.981	65.7693	24.2501
0.9775	309.5	66.115	24.3845
0.98	309.019	66.4618	24.5197
0.9825	308.535	66.8096	24.6555
0.985	308.049	67.1584	24.7921
0.9875	307.562	67.5082	24.9294
0.99	307.074	67.859	25.0673
0.9925	306.583	68.2108	25.206
0.995	306.091	68.5636	25.3454
0.9975	305.597	68.9173	25.4854
1	305.102	69.272	25.6262
1.0025	304.605	69.6277	25.7677
1.005	304.106	69.9843	25.9099
1.0075	303.605	70.3419	26.0529
1.01	303.103	70.7004	26.1965
1.0125	302.599	71.0599	26.3409
1.015	302.094	71.4203	26.486
1.0175	301.587	71.7816	26.6318
1.02	301.078	72.1438	26.7783
1.0225	300.568	72.5069	26.9255
1.025	300.056	72.8709	27.0735
1.0275	299.542	73.2358	27.2222
1.03	299.027	73.6016	27.3716
1.0325	298.51	73.9682	27.5218
1.035	297.992	74.3357	27.6727
1.0375	297.472	74.7041	27.8243
1.04	296.95	75.0733	27.9766
1.0425	296.427	75.4434	28.1297
1.045	295.902	75.8143	28.2835
1.0475	295.376	76.186	28.4381
1.05	294.848	76.5585	28.5934
1.0525	294.319	76.9319	28.7494
1.055	293.788	77.306	28.9062
1.0575	293.255	77.6809	29.0637
1.06	292.721	78.0566	29.2219
1.0625	292.186	78.4331	29.3809
1.065	291.649	78.8103	29.5406
1.0675	291.111	79.1883	29.7011
1.07	290.571	79.567	29.8623
1.0725	290.029	79.9464	30.0243
1.075	289.486	80.3266	30.187
1.0775	288.942	80.7075	30.3504
1.08	288.396	81.089	30.5146
1.0825	287.849	81.4713	30.6796
1.085	287.3	81.8543	30.8453
1.0875	286.75	82.2379	31.0117
1.09	286.199	82.6221	31.1789
1.0925	285.646	83.0071	31.3469
1.095	285.092	83.3926	31.5156
1.0975	284.536	83.7788	31.6851
1.1	283.979	84.1656	31.8553
1.1025	283.421	84.5531	32.0263
1.105	282.861	84.9411	32.198
1.1075	282.3	85.3297	32.3705
1.11	281.737	85.7189	32.5437
1.1125	281.174	86.1086	32.7177
1.115	280.609	86.4989	32.8925
1.1175	280.042	86.8897	33.068
1.12	279.475	87.2811	33.2442
1.1225	278.906	87.673	33.4213
1.125	278.336	88.0653	33.5991
1.1275	277.764	88.4582	33.7776
1.13	277.192	88.8516	33.9569
1.1325	276.618	89.2454	34.137
1.135	276.043	89.6397	34.3178
1.1375	275.466	90.0344	34.4994
1.14	274.889	90.4296	34.6817
1.1425	274.31	90.8252	34.8648
1.145	273.73	91.2212	35.0487
1.1475	273.149	91.6176	35.2333
1.15	272.567	92.0143	35.4187
1.1525	271.984	92.4115	35.6048
1.155	271.399	92.809	35.7917
1.1575	270.814	93.2068	35.9794
1.16	270.227	93.605	36.1678
1.1625	269.639	94.0036	36.357
1.165	269.051	94.4024	36.5469
1.1675	268.461	94.8015	36.7376
1.17	267.87	95.2009	36.9291
1.1725	267.278	95.6006	37.1213
1.175	266.685	96.0005	37.3143
1.1775	266.091	96.4006	37.508
1.18	265.496	96.801	37.7025
1.1825	264.901	97.2017	37.8978
1.185	264.304	97.6025	38.0938
1.1875	263.706	98.0035	38.2906
1.19	263.107	98.4047	38.4881
1.1925	262.508	98.806	38.6864
1.195	261.907	99.2075	38.8854
1.1975	261.306	99.6091	39.0852
1.2	260.703	100.011	39.2857
1.2025	260.1	100.413	39.487
1.205	259.496	100.815	39.6891
1.2075	258.891	101.217	39.8919
1.21	258.286	101.619	40.0954
1.2125	257.679	102.021	40.2997
1.215	257.072	102.423	40.5048
1.2175	256.464	102.825	40.7106
1.22	255.855	103.228	40.9171
1.2225	255.246	103.63	41.1244
1.225	254.636	104.032	41.3325
1.2275	254.025	104.434	41.5413
1.23	253.413	104.836	41.7508
1.2325	252.801	105.238	41.9611
1.235	252.188	105.64	42.1721
1.2375	251.574	106.042	42.3838
1.24	250.96	106.444	42.5963
1.2425	250.345	106.846	42.8096
1.245	249.729	107.247	43.0235
1.2475	249.113	107.648	43.2382
1.25	248.497	108.05	43.4537
1.2525	247.879	108.451	43.6699
1.255	247.262	108.852	43.8868
1.2575	246.643	109.252	44.1044
1.26	246.025	109.653	44.3228
1.2625	245.405	110.053	44.5419
1.265	244.786	110.453	44.7617
1.2675	244.165	110.852	44.9822
1.27	243.545	111.252	45.2035
1.2725	242.924	111.651	45.4255
1.275	242.302	112.05	45.6482
1.2775	241.68	112.448	45.8716
1.28	241.058	112.846	46.0957
1.2825	240.435	113.244	46.3206
1.285	239.812	113.641	46.5461
1.2875	239.189	114.038	46.7724
1.29	238.566	114.435	46.9994
1.2925	237.942	114.831	47.2271
1.295	237.317	115.227	47.4555
1.2975	236.693	115.622	47.6846
1.3	236.068	116.017	47.9144
1.3025	235.443	116.412	48.1449
1.305	234.818	116.806	48.3761
1.3075	234.193	117.199	48.608
1.31	233.567	117.592	48.8406
1.3125	232.942	117.984	49.0738
1.315	232.316	118.376	49.3078
1.3175	231.69	118.768	49.5425
1.32	231.064	119.158	49.7778
1.3225	230.438	119.548	50.0138
1.325	229.812	119.938	50.2505
1.3275	229.185	120.327	50.4879
1.33	228.559	120.715	50.7259
1.3325	227.933	121.103	50.9646
1.335	227.306	121.49	51.204
1.3375	226.68	121.876	51.4441
1.34	226.053	122.262	51.6848
1.3425	225.427	122.647	51.9262
1.345	224.801	123.031	52.1682
1.3475	224.175	123.414	52.4109
1.35	223.549	123.797	52.6542
1.3525	222.923	124.179	52.8982
1.355	222.297	124.56	53.1429
1.3575	221.671	124.941	53.3882
1.36	221.045	125.32	53.6341
1.3625	220.42	125.699	53.8807
1.365	219.795	126.077	54.1279
1.3675	219.17	126.454	54.3758
1.37	218.545	126.831	54.6243
1.3725	217.92	127.206	54.8734
1.375	217.296	127.581	55.1231
1.3775	216.672	127.954	55.3735
1.38	216.048	128.327	55.6244
1.3825	215.425	128.699	55.876
1.385	214.802	129.07	56.1282
1.3875	214.179	129.44	56.3811
1.39	213.557	129.809	56.6345
1.3925	212.935	130.177	56.8885
1.395	212.313	130.544	57.1432
1.3975	211.692	130.91	57.3984
1.4	211.071	131.275	57.6542
1.4025	210.45	131.639	57.9106
1.405	209.83	132.002	58.1676
1.4075	209.211	132.364	58.4252
1.41	208.592	132.725	58.6834
1.4125	207.973	133.085	58.9421
1.415	207.355	133.443	59.2015
1.4175	206.738	133.801	59.4613
1.42	206.121	134.157	59.7218
1.4225	205.504	134.513	59.9828
1.425	204.889	134.867	60.2444
1.4275	204.273	135.22	60.5066
1.43	203.659	135.572	60.7692
1.4325	203.045	135.923	61.0325
1.435	202.432	136.272	61.2963
1.4375	201.819	136.621	61.5606
1.44	201.207	136.968	61.8255
1.4425	200.595	137.314	62.0909
1.445	199.985	137.658	62.3568
1.4475	199.375	138.002	62.6233
1.45	198.766	138.344	62.8903
1.4525	198.157	138.685	63.1578
1.455	197.549	139.025	63.4258
1.4575	196.943	139.363	63.6943
1.46	196.336	139.7	63.9634
1.4625	195.731	140.036	64.2329
1.465	195.126	140.371	64.503
1.4675	194.523	140.704	64.7735
1.47	193.92	141.036	65.0446
1.4725	193.318	141.366	65.3161
1.475	192.717	141.695	65.5881
1.4775	192.117	142.023	65.8606
1.48	191.517	142.349	66.1336
1.4825	190.919	142.674	66.407
1.485	190.321	142.998	66.6809
1.4875	189.725	143.32	66.9553
1.49	189.129	143.641	67.2301
1.4925	188.534	143.96	67.5054
1.495	187.941	144.278	67.7812
1.4975	187.348	144.595	68.0574
1.5	186.756	144.91	68.334
1.5025	186.166	145.223	68.6111
1.505	185.576	145.535	68.8886
1.5075	184.988	145.846	69.1665
1.51	184.4	146.155	69.4449
1.5125	183.814	146.463	69.7237
1.515	183.228	146.769	70.0029
1.5175	182.644	147.073	70.2825
1.52	182.061	147.376	70.5626
1.5225	181.479	147.678	70.843
1.525	180.898	147.978	71.1238
1.5275	180.318	148.277	71.4051
1.53	179.74	148.574	71.6867
1.5325	179.162	148.869	71.9687
1.535	178.586	149.163	72.2511
1.5375	178.011	149.455	72.5339
1.54	177.437	149.746	72.8171
1.5425	176.865	150.035	73.1006
1.545	176.293	150.322	73.3845
1.5475	175.723	150.608	73.6688
1.55	175.154	150.893	73.9534
1.5525	174.586	151.175	74.2383
1.555	174.02	151.456	74.5237
1.5575	173.455	151.736	74.8093
1.56	172.891	152.014	75.0953
1.5625	172.328	152.29	75.3816
1.565	171.767	152.564	75.6683
1.5675	171.207	152.837	75.9553
1.57	170.649	153.109	76.2426
1.5725	170.092	153.378	76.5302
1.575	169.536	153.646	76.8182
1.5775	168.981	153.912	77.1064
1.58	168.428	154.177	77.395
1.5825	167.876	154.44	77.6838
1.585	167.326	154.701	77.973
1.5875	166.777	154.961	78.2624
1.59	166.229	155.218	78.5521
1.5925	165.683	155.475	78.8421
1.595	165.139	155.729	79.1324
1.5975	164.595	155.982	79.4229
1.6	164.053	156.233	79.7137
1.6025	163.513	156.482	80.0048
1.605	162.974	156.73	80.2961
1.6075	162.437	156.976	80.5877
1.61	161.901	157.22	80.8795
1.6125	161.366	157.462	81.1716
1.615	160.833	157.703	81.4639
1.6175	160.302	157.942	81.7565
1.62	159.772	158.179	82.0492
1.6225	159.243	158.415	82.3422
1.625	158.716	158.648	82.6354
1.6275	158.191	158.88	82.9289
1.63	157.667	159.111	83.2225
1.6325	157.144	159.339	83.5164
1.635	156.624	159.566	83.8104
1.6375	156.104	159.791	84.1047
1.64	155.587	160.014	84.3991
1.6425	155.071	160.236	84.6938
1.645	154.556	160.455	84.9886
1.6475	154.043	160.673	85.2836
1.65	153.532	160.89	85.5787
1.6525	153.022	161.104	85.8741
1.655	152.514	161.317	86.1696
1.6575	152.007	161.528	86.4652
1.66	151.502	161.737	86.761
1.6625	150.999	161.944	87.057
1.665	150.497	162.15	87.3531
1.6675	149.997	162.353	87.6494
1.67	149.499	162.556	87.9458
1.6725	149.002	162.756	88.2423
1.675	148.507	162.954	88.5389
1.6775	148.013	163.151	88.8357
1.68	147.521	163.346	89.1326
1.6825	147.031	163.539	89.4296
1.685	146.543	163.731	89.7267
1.6875	146.056	163.92	90.0239
1.69	145.571	164.108	90.3213
1.6925	145.087	164.294	90.6187
1.695	144.605	164.478	90.9162
1.6975	144.125	164.661	91.2138
1.7	143.647	164.842	91.5115
1.7025	143.17	165.021	91.8092
1.705	142.695	165.198	92.107
1.7075	142.222	165.373	92.4049
1.71	141.75	165.547	92.7029
1.7125	141.28	165.719	93.0009
1.715	140.812	165.889	93.299
1.7175	140.345	166.057	93.5971
1.72	139.881	166.224	93.8953
1.7225	139.418	166.389	94.1935
1.725	138.956	166.552	94.4917
1.7275	138.497	166.713	94.79
1.73	138.039	166.873	95.0883
1.7325	137.583	167.031	95.3867
1.735	137.128	167.187	95.685
1.7375	136.676	167.341	95.9834
1.74	136.225	167.494	96.2818
1.7425	135.775	167.644	96.5801
1.745	135.328	167.793	96.8785
1.7475	134.882	167.941	97.1769
1.75	134.438	168.086	97.4753
1.7525	133.996	168.23	97.7737
1.755	133.556	168.372	98.072
1.7575	133.117	168.513	98.3703
1.76	132.68	168.651	98.6686
1.7625	132.245	168.788	98.9669
1.765	131.811	168.923	99.2652
1.7675	131.38	169.057	99.5634
1.77	130.95	169.189	99.8615
1.7725	130.522	169.319	100.16
1.775	130.095	169.447	100.458
1.7775	129.67	169.574	100.756
1.78	129.248	169.699	101.054
1.7825	128.826	169.822	101.352
1.785	128.407	169.943	101.649
1.7875	127.989	170.063	101.947
1.79	127.574	170.181	102.245
1.7925	127.16	170.298	102.543
1.795	126.747	170.413	102.84
1.7975	126.337	170.526	103.137
1.8	125.928	170.637	103.435
1.8025	125.521	170.747	103.732
1.805	125.116	170.855	104.029
1.8075	124.712	170.962	104.326
1.81	124.31	171.066	104.623
1.8125	123.91	171.17	104.92
1.815	123.512	171.271	105.217
1.8175	123.116	171.371	105.513
1.82	122.721	171.469	105.81
1.8225	122.328	171.566	106.106
1.825	121.937	171.661	106.402
1.8275	121.548	171.754	106.698
1.83	121.16	171.846	106.994
1.8325	120.774	171.936	107.29
1.835	120.39	172.024	107.586
1.8375	120.007	172.111	107.881
1.84	119.627	172.196	108.177
1.8425	119.248	172.28	108.472
1.845	118.871	172.362	108.767
1.8475	118.495	172.443	109.062
1.85	118.122	172.522	109.357
1.8525	117.75	172.599	109.651
1.855	117.38	172.675	109.945
1.8575	117.011	172.749	110.24
1.86	116.645	172.822	110.534
1.8625	116.28	172.893	110.827
1.865	115.917	172.963	111.121
1.8675	115.555	173.031	111.414
1.87	115.195	173.097	111.708
1.8725	114.837	173.162	112.001
1.875	114.481	173.226	112.293
1.8775	114.127	173.288	112.586
1.88	113.774	173.348	112.878
1.8825	113.423	173.407	113.17
1.885	113.073	173.464	113.462
1.8875	112.726	173.52	113.754
1.89	112.38	173.575	114.046
1.8925	112.035	173.628	114.337
1.895	111.693	173.679	114.628
1.8975	111.352	173.729	114.919
1.9	111.013	173.778	115.209
1.9025	110.675	173.825	115.5
1.905	110.34	173.871	115.79
1.9075	110.006	173.915	116.079
1.91	109.673	173.958	116.369
1.9125	109.343	173.999	116.658
1.915	109.014	174.039	116.947
1.9175	108.686	174.077	117.236
1.92	108.361	174.115	117.525
1.9225	108.037	174.15	117.813
1.925	107.715	174.185	118.101
1.9275	107.394	174.217	118.389
1.93	107.075	174.249	118.676
1.9325	106.758	174.279	118.963
1.935	106.442	174.308	119.25
1.9375	106.128	174.335	119.537
1.94	105.816	174.361	119.823
1.9425	105.505	174.386	120.109
1.945	105.196	174.409	120.395
1.9475	104.889	174.431	120.68
1.95	104.583	174.452	120.965
1.9525	104.279	174.471	121.25
1.955	103.977	174.489	121.534
1.9575	103.676	174.506	121.818
1.96	103.377	174.521	122.102
1.9625	103.079	174.535	122.386
1.965	102.783	174.548	122.669
1.9675	102.489	174.56	122.952
1.97	102.196	174.57	123.234
1.9725	101.905	174.579	123.517
1.975	101.615	174.586	123.798
1.9775	101.327	174.593	124.08
1.98	101.041	174.598	124.361
1.9825	100.756	174.602	124.642
1.985	100.473	174.605	124.923
1.9875	100.191	174.606	125.203
1.99	99.9111	174.606	125.483
1.9925	99.6326	174.605	125.762
1.995	99.3556	174.603	126.041
1.9975	99.0803	174.6	126.32
2	98.8065	174.595	126.598
2.0025	98.5342	174.589	126.876
2.005	98.2635	174.582	127.154
2.0075	97.9944	174.574	127.432
2.01	97.7267	174.565	127.708
2.0125	97.4606	174.554	127.985
2.015	97.1961	174.543	128.261
2.0175	96.9331	174.53	128.537
2.02	96.6715	174.516	128.813
2.0225	96.4115	174.501	129.088
2.025	96.1531	174.485	129.362
2.0275	95.8961	174.467	129.637
2.03	95.6406	174.449	129.911
2.0325	95.3867	174.429	130.184
2.035	95.1342	174.409	130.457
2.0375	94.8832	174.387	130.73
2.04	94.6337	174.364	131.002
2.0425	94.3857	174.34	131.274
2.045	94.1391	174.315	131.546
2.0475	93.894	174.289	131.817
2.05	93.6504	174.262	132.088
2.0525	93.4083	174.234	132.358
2.055	93.1676	174.204	132.628
2.0575	92.9283	174.174	132.898
2.06	92.6905	174.143	133.167
2.0625	92.4542	174.11	133.435
2.065	92.2193	174.077	133.704
2.0675	91.9858	174.043	133.972
2.07	91.7537	174.007	134.239
2.0725	91.5231	173.971	134.506
2.075	91.2939	173.934	134.773
2.0775	91.0661	173.895	135.039
2.08	90.8397	173.856	135.304
2.0825	90.6147	173.816	135.57
2.085	90.3911	173.774	135.835
2.0875	90.1689	173.732	136.099
2.09	89.9481	173.689	136.363
2.0925	89.7286	173.645	136.627
2.095	89.5106	173.6	136.89
2.0975	89.2939	173.554	137.152
2.1	89.0786	173.507	137.415
2.1025	88.8646	173.459	137.676
2.105	88.6521	173.41	137.938
2.1075	88.4408	173.361	138.199
2.11	88.2309	173.31	138.459
2.1125	88.0224	173.259	138.719
2.115	87.8152	173.206	138.978
2.1175	87.6094	173.153	139.238
2.12	87.4048	173.099	139.496
2.1225	87.2016	173.044	139.754
2.125	86.9997	172.988	140.012
2.1275	86.7991	172.932	140.269
2.13	86.5999	172.874	140.526
2.1325	86.4019	172.816	140.782
2.135	86.2052	172.757	141.038
2.1375	86.0099	172.697	141.293
2.14	85.8158	172.636	141.548
2.1425	85.623	172.574	141.803
2.145	85.4315	172.512	142.057
2.1475	85.2412	172.449	142.31
2.15	85.0523	172.385	142.563
2.1525	84.8646	172.32	142.816
2.155	84.6781	172.254	143.068
2.1575	84.4929	172.188	143.319
2.16	84.309	172.121	143.57
2.1625	84.1263	172.053	143.821
2.165	83.9448	171.984	144.071
2.1675	83.7646	171.915	144.321
2.17	83.5856	171.845	144.57
2.1725	83.4078	171.774	144.818
2.175	83.2313	171.702	145.067
2.1775	83.056	171.63	145.314
2.18	82.8818	171.557	145.562
2.1825	82.7089	171.483	145.808
2.185	82.5372	171.408	146.054
2.1875	82.3667	171.333	146.3
2.19	82.1973	171.257	146.545
2.1925	82.0292	171.181	146.79
2.195	81.8622	171.104	147.034
2.1975	81.6964	171.026	147.278
2.2	81.5318	170.947	147.521
2.2025	81.3684	170.868	147.764
2.205	81.2061	170.788	148.006
2.2075	81.0449	170.707	148.248
2.21	80.8849	170.626	148.489
2.2125	80.7261	170.544	148.73
2.215	80.5684	170.462	148.97
2.2175	80.4118	170.379	149.21
2.22	80.2564	170.295	149.449
2.2225	80.1021	170.21	149.687
2.225	79.9489	170.125	149.926
2.2275	79.7968	170.04	150.163
2.23	79.6459	169.954	150.4
2.2325	79.496	169.867	150.637
2.235	79.3473	169.78	150.873
2.2375	79.1996	169.692	151.109
2.24	79.0531	169.603	151.344
2.2425	78.9076	169.514	151.578
2.245	78.7632	169.424	151.812
2.2475	78.6199	169.334	152.046
2.25	78.4777	169.243	152.279
2.2525	78.3365	169.152	152.512
2.255	78.1964	169.06	152.744
2.2575	78.0574	168.968	152.975
2.26	77.9194	168.875	153.206
2.2625	77.7825	168.781	153.436
2.265	77.6466	168.687	153.666
2.2675	77.5117	168.593	153.896
2.27	77.3779	168.498	154.124
2.2725	77.2452	168.402	154.353
2.275	77.1134	168.306	154.581
2.2775	76.9827	168.209	154.808
2.28	76.853	168.112	155.035
2.2825	76.7243	168.015	155.261
2.285	76.5966	167.917	155.487
2.2875	76.4699	167.818	155.712
2.29	76.3442	167.719	155.936
2.2925	76.2195	167.62	156.16
2.295	76.0958	167.52	156.384
2.2975	75.9731	167.42	156.607
2.3	75.8514	167.319	156.83
2.3025	75.7306	167.218	157.052
2.305	75.6108	167.116	157.273
2.3075	75.492	167.014	157.494
2.31	75.3741	166.911	157.714
2.3125	75.2572	166.808	157.934
2.315	75.1413	166.705	158.154
2.3175	75.0263	166.601	158.372
2.32	74.9122	166.497	158.591
2.3225	74.7991	166.392	158.808
2.325	74.687	166.287	159.026
2.3275	74.5757	166.182	159.242
2.33	74.4654	166.076	159.458
2.3325	74.356	165.97	159.674
2.335	74.2476	165.863	159.889
2.3375	74.14	165.756	160.104
2.34	74.0334	165.649	160.318
2.3425	73.9276	165.541	160.531
2.345	73.8228	165.433	160.744
2.3475	73.7188	165.325	160.956
2.35	73.6158	165.216	161.168
2.3525	73.5136	165.107	161.38
2.355	73.4124	164.997	161.59
2.3575	73.312	164.887	161.801
2.36	73.2125	164.777	162.01
2.3625	73.1138	164.667	162.219
2.365	73.016	164.556	162.428
2.3675	72.9191	164.445	162.636
2.37	72.8231	164.333	162.844
2.3725	72.7279	164.221	163.051
2.375	72.6335	164.109	163.257
2.3775	72.54	163.997	163.463
2.38	72.4474	163.884	163.668
2.3825	72.3555	163.771	163.873
2.385	72.2646	163.658	164.078
2.3875	72.1744	163.544	164.281
2.39	72.0851	163.43	164.485
2.3925	71.9966	163.316	164.687
2.395	71.9089	163.202	164.89
2.3975	71.822	163.087	165.091
2.4	71.7359	162.972	165.292
2.4025	71.6507	162.857	165.493
2.405	71.5662	162.741	165.693
2.4075	71.4826	162.625	165.892
2.41	71.3997	162.509	166.091
2.4125	71.3177	162.393	166.29
2.415	71.2364	162.276	166.487
2.4175	71.1559	162.159	166.685
2.42	71.0762	162.042	166.882
2.4225	70.9972	161.925	167.078
2.425	70.919	161.808	167.273
2.4275	70.8416	161.69	167.469
2.43	70.765	161.572	167.663
2.4325	70.6891	161.454	167.857
2.435	70.614	161.335	168.051
2.4375	70.5396	161.217	168.244
2.44	70.466	161.098	168.436
2.4425	70.3931	160.979	168.628
2.445	70.321	160.859	168.82
2.4475	70.2496	160.74	169.011
2.45	70.1789	160.62	169.201
2.4525	70.109	160.5	169.391
2.455	70.0398	160.38	169.58
2.4575	69.9713	160.26	169.769
2.46	69.9035	160.14	169.957
2.4625	69.8364	160.019	170.144
2.465	69.7701	159.898	170.331
2.4675	69.7045	159.778	170.518
2.47	69.6395	159.656	170.704
2.4725	69.5753	159.535	170.89
2.475	69.5118	159.414	171.075
2.4775	69.4489	159.292	171.259
2.48	69.3868	159.17	171.443
2.4825	69.3253	159.049	171.626
2.485	69.2645	158.926	171.809
2.4875	69.2044	158.804	171.991
2.49	69.145	158.682	172.173
2.4925	69.0863	158.559	172.354
2.495	69.0282	158.437	172.535
2.4975	68.9708	158.314	172.715
2.5	68.914	158.191	172.895
2.5025	68.8579	158.068	173.074
2.505	68.8025	157.945	173.252
2.5075	68.7477	157.822	173.43
2.51	68.6936	157.698	173.608
2.5125	68.6401	157.575	173.785
2.515	68.5872	157.451	173.961
2.5175	68.535	157.328	174.137
2.52	68.4835	157.204	174.313
2.5225	68.4325	157.08	174.487
2.525	68.3822	156.956	174.662
2.5275	68.3325	156.832	174.836
2.53	68.2835	156.708	175.009
2.5325	68.235	156.583	175.182
2.535	68.1872	156.459	175.354
2.5375	68.14	156.334	175.526
2.54	68.0934	156.21	175.697
2.5425	68.0474	156.085	175.867
2.545	68.002	155.961	176.037
2.5475	67.9572	155.836	176.207
2.55	67.913	155.711	176.376
2.5525	67.8694	155.586	176.545
2.555	67.8264	155.461	176.713
2.5575	67.784	155.336	176.88
2.56	67.7421	155.211	177.047
2.5625	67.7009	155.086	177.214
2.565	67.6602	154.96	177.38
2.5675	67.6201	154.835	177.545
2.57	67.5806	154.71	177.71
2.5725	67.5416	154.584	177.874
2.575	67.5032	154.459	178.038
2.5775	67.4654	154.333	178.201
2.58	67.4281	154.208	178.364
2.5825	67.3914	154.082	178.527
2.585	67.3552	153.956	178.688
2.5875	67.3196	153.831	178.85
2.59	67.2845	153.705	179.01
2.5925	67.25	153.579	179.171
2.595	67.2161	153.454	179.33
2.5975	67.1826	153.328	179.49
2.6	67.1497	153.202	179.648
2.6025	67.1174	153.076	179.806
2.605	67.0856	152.95	179.964
2.6075	67.0543	152.824	180.121
2.61	67.0235	152.699	180.278
2.6125	66.9932	152.573	180.434
2.615	66.9635	152.447	180.59
2.6175	66.9343	152.321	180.745
2.62	66.9056	152.195	180.899
2.6225	66.8774	152.069	181.054
2.625	66.8497	151.943	181.207
2.6275	66.8225	151.817	181.36
2.63	66.7959	151.691	181.513
2.6325	66.7697	151.565	181.665
2.635	66.744	151.439	181.817
2.6375	66.7189	151.314	181.968
2.64	66.6942	151.188	182.118
2.6425	66.67	151.062	182.268
2.645	66.6463	150.936	182.418
2.6475	66.6231	150.81	182.567
2.65	66.6003	150.684	182.715
2.6525	66.5781	150.558	182.864
2.655	66.5563	150.433	183.011
2.6575	66.535	150.307	183.158
2.66	66.5142	150.181	183.305
2.6625	66.4938	150.055	183.451
2.665	66.4739	149.93	183.596
2.6675	66.4545	149.804	183.741
2.67	66.4355	149.678	183.886
2.6725	66.417	149.553	184.03
2.675	66.3989	149.427	184.174
2.6775	66.3813	149.302	184.317
2.68	66.3642	149.176	184.459
2.6825	66.3475	149.051	184.602
2.685	66.3312	148.926	184.743
2.6875	66.3154	148.8	184.884
2.69	66.3001	148.675	185.025
2.6925	66.2851	148.55	185.165
2.695	66.2706	148.425	185.305
2.6975	66.2566	148.299	185.444
2.7	66.243	148.174	185.583
2.7025	66.2298	148.049	185.721
2.705	66.217	147.924	185.859
2.7075	66.2047	147.799	185.996
2.71	66.1927	147.675	186.133
2.7125	66.1812	147.55	186.269
2.715	66.1702	147.425	186.405
2.7175	66.1595	147.3	186.54
2.72	66.1492	147.176	186.675
2.7225	66.1394	147.051	186.809
2.725	66.13	146.927	186.943
2.7275	66.1209	146.803	187.077
2.73	66.1123	146.678	187.209
2.7325	66.1041	146.554	187.342
2.735	66.0963	146.43	187.474
2.7375	66.0889	146.306	187.605
2.74	66.0818	146.182	187.736
2.7425	66.0752	146.058	187.867
2.745	66.069	145.934	187.997
2.7475	66.0631	145.81	188.127
2.75	66.0577	145.687	188.256
2.7525	66.0526	145.563	188.384
2.755	66.0479	145.44	188.513
2.7575	66.0436	145.316	188.64
2.76	66.0396	145.193	188.768
2.7625	66.036	145.07	188.894
2.765	66.0329	144.946	189.021
2.7675	66.03	144.823	189.147
2.77	66.0276	144.7	189.272
2.7725	66.0255	144.578	189.397
2.775	66.0238	144.455	189.521
2.7775	66.0224	144.332	189.645
2.78	66.0214	144.21	189.769
2.7825	66.0208	144.087	189.892
2.785	66.0205	143.965	190.015
2.7875	66.0206	143.843	190.137
2.79	66.0211	143.72	190.258
2.7925	66.0218	143.598	190.38
2.795	66.023	143.477	190.501
2.7975	66.0244	143.355	190.621
2.8	66.0263	143.233	190.741
2.8025	66.0284	143.111	190.86
2.805	66.031	142.99	190.979
2.8075	66.0338	142.869	191.098
2.81	66.037	142.747	191.216
2.8125	66.0405	142.626	191.333
2.815	66.0444	142.505	191.451
2.8175	66.0486	142.384	191.567
2.82	66.0531	142.263	191.684
2.8225	66.0579	142.143	191.799
2.825	66.0631	142.022	191.915
2.8275	66.0686	141.902	192.03
2.83	66.0744	141.781	192.144
2.8325	66.0805	141.661	192.258
2.835	66.087	141.541	192.372
2.8375	66.0938	141.421	192.485
2.84	66.1009	141.301	192.598
2.8425	66.1083	141.182	192.71
2.845	66.116	141.062	192.822
2.8475	66.124	140.943	192.933
2.85	66.1323	140.823	193.044
2.8525	66.1409	140.704	193.155
2.855	66.1499	140.585	193.265
2.8575	66.1591	140.466	193.375
2.86	66.1687	140.348	193.484
2.8625	66.1785	140.229	193.593
2.865	66.1886	140.11	193.701
2.8675	66.1991	139.992	193.809
2.87	66.2098	139.874	193.916
2.8725	66.2208	139.756	194.023
2.875	66.2321	139.638	194.13
2.8775	66.2437	139.52	194.236
2.88	66.2556	139.402	194.342
2.8825	66.2678	139.285	194.447
2.885	66.2802	139.167	194.552
2.8875	66.2929	139.05	194.657
2.89	66.3059	138.933	194.761
2.8925	66.3192	138.816	194.865
2.895	66.3328	138.699	194.968
2.8975	66.3466	138.583	195.071
2.9	66.3608	138.466	195.173
2.9025	66.3751	138.35	195.275
2.905	66.3898	138.233	195.377
2.9075	66.4047	138.117	195.478
2.91	66.4199	138.001	195.579
2.9125	66.4354	137.886	195.679
2.915	66.4511	137.77	195.779
2.9175	66.4671	137.655	195.878
2.92	66.4833	137.539	195.977
2.9225	66.4998	137.424	196.076
2.925	66.5166	137.309	196.174
2.9275	66.5336	137.194	196.272
2.93	66.5508	137.08	196.37
2.9325	66.5684	136.965	196.467
2.935	66.5861	136.851	196.563
2.9375	66.6041	136.736	196.66
2.94	66.6224	136.622	196.755
2.9425	66.6409	136.508	196.851
2.945	66.6597	136.395	196.946
2.9475	66.6787	136.281	197.04
2.95	66.6979	136.167	197.135
2.9525	66.7174	136.054	197.228
2.955	66.7371	135.941	197.322
2.9575	66.7571	135.828	197.415
2.96	66.7773	135.715	197.507
2.9625	66.7977	135.603	197.6
2.965	66.8184	135.49	197.691
2.9675	66.8393	135.378	197.783
2.97	66.8604	135.266	197.874
2.9725	66.8818	135.154	197.964
2.975	66.9034	135.042	198.055
2.9775	66.9252	134.93	198.145
2.98	66.9472	134.819	198.234
2.9825	66.9695	134.707	198.323
2.985	66.992	134.596	198.412
2.9875	67.0147	134.485	198.5
2.99	67.0376	134.375	198.588
2.9925	67.0607	134.264	198.675
2.995	67.0841	134.153	198.763
2.9975	67.1077	134.043	198.849
3	67.1315	133.933	198.936
3.0025	67.1555	133.823	199.022
3.005	67.1797	133.713	199.107
3.0075	67.2041	133.604	199.192
3.01	67.2287	133.494	199.277
3.0125	67.2535	133.385	199.362
3.015	67.2786	133.276	199.446
3.0175	67.3038	133.167	199.529
3.02	67.3293	133.058	199.613
3.0225	67.3549	132.949	199.696
3.025	67.3808	132.841	199.778
3.0275	67.4068	132.733	199.86
3.03	67.4331	132.625	199.942
3.0325	67.4595	132.517	200.024
3.035	67.4862	132.409	200.105
3.0375	67.513	132.302	200.185
3.04	67.54	132.194	200.266
3.0425	67.5672	132.087	200.346
3.045	67.5946	131.98	200.425
3.0475	67.6222	131.873	200.505
3.05	67.65	131.766	200.583
3.0525	67.678	131.66	200.662
3.055	67.7062	131.554	200.74
3.0575	67.7345	131.448	200.818
3.06	67.763	131.342	200.895
3.0625	67.7917	131.236	200.972
3.065	67.8206	131.13	201.049
3.0675	67.8497	131.025	201.125
3.07	67.8789	130.92	201.201
3.0725	67.9084	130.815	201.277
3.075	67.938	130.71	201.352
3.0775	67.9677	130.605	201.427
3.08	67.9977	130.501	201.502
3.0825	68.0278	130.396	201.576
3.085	68.0581	130.292	201.65
3.0875	68.0886	130.188	201.723
3.09	68.1192	130.084	201.796
3.0925	68.15	129.981	201.869
3.095	68.1809	129.877	201.942
3.0975	68.2121	129.774	202.014
3.1	68.2434	129.671	202.085
3.1025	68.2748	129.568	202.157
3.105	68.3064	129.466	202.228
3.1075	68.3382	129.363	202.299
3.11	68.3702	129.261	202.369
3.1125	68.4023	129.159	202.439
3.115	68.4345	129.057	202.509
3.1175	68.4669	128.955	202.578
3.12	68.4995	128.853	202.647
3.1225	68.5322	128.752	202.716
3.125	68.5651	128.651	202.784
3.1275	68.5982	128.55	202.852
3.13	68.6313	128.449	202.92
3.1325	68.6647	128.348	202.987
3.135	68.6982	128.248	203.054
3.1375	68.7318	128.148	203.121
3.14	68.7656	128.048	203.187
3.1425	68.7995	127.948	203.253
3.145	68.8336	127.848	203.318
3.1475	68.8678	127.748	203.384
3.15	68.9021	127.649	203.449
3.1525	68.9366	127.55	203.513
3.155	68.9713	127.451	203.578
3.1575	69.0061	127.352	203.642
3.16	69.041	127.254	203.705
3.1625	69.076	127.155	203.769
3.165	69.1112	127.057	203.832
3.1675	69.1466	126.959	203.894
3.17	69.182	126.861	203.957
3.1725	69.2176	126.764	204.019
3.175	69.2534	126.666	204.081
3.1775	69.2892	126.569	204.142
3.18	69.3252	126.472	204.203
3.1825	69.3613	126.375	204.264
3.185	69.3976	126.278	204.324
3.1875	69.434	126.182	204.384
3.19	69.4705	126.085	204.444
3.1925	69.5071	125.989	204.504
3.195	69.5439	125.893	204.563
3.1975	69.5808	125.797	204.622
3.2	69.6178	125.702	204.68
3.2025	69.6549	125.607	204.739
3.205	69.6922	125.511	204.796
3.2075	69.7296	125.416	204.854
3.21	69.7671	125.322	204.911
3.2125	69.8047	125.227	204.968
3.215	69.8424	125.132	205.025
3.2175	69.8803	125.038	205.082
3.22	69.9182	124.944	205.138
3.2225	69.9563	124.85	205.193
3.225	69.9945	124.757	205.249
3.2275	70.0328	124.663	205.304
3.23	70.0713	124.57	205.359
3.2325	70.1098	124.477	205.414
3.235	70.1484	124.384	205.468
3.2375	70.1872	124.291	205.522
3.24	70.2261	124.199	205.575
3.2425	70.265	124.106	205.629
3.245	70.3041	124.014	205.682
3.2475	70.3433	123.922	205.735
3.25	70.3826	123.83	205.787
3.2525	70.422	123.739	205.839
3.255	70.4615	123.647	205.891
3.2575	70.5011	123.556	205.943
3.26	70.5408	123.465	205.994
3.2625	70.5806	123.374	206.045
3.265	70.6205	123.284	206.096
3.2675	70.6605	123.193	206.146
3.27	70.7007	123.103	206.197
3.2725	70.7409	123.013	206.246
3.275	70.7812	122.923	206.296
3.2775	70.8216	122.833	206.345
3.28	70.8621	122.744	206.394
3.2825	70.9027	122.654	206.443
3.285	70.9434	122.565	206.491
3.2875	70.9841	122.476	206.54
3.29	71.025	122.387	206.587
3.2925	71.066	122.299	206.635
3.295	71.107	122.211	206.682
3.2975	71.1482	122.122	206.729
3.3	71.1894	122.034	206.776
3.3025	71.2307	121.947	206.823
3.305	71.2722	121.859	206.869
3.3075	71.3137	121.772	206.915
3.31	71.3552	121.684	206.96
3.3125	71.3969	121.597	207.006
3.315	71.4387	121.51	207.051
3.3175	71.4805	121.424	207.096
3.32	71.5224	121.337	207.14
3.3225	71.5645	121.251	207.185
3.325	71.6065	121.165	207.229
3.3275	71.6487	121.079	207.272
3.33	71.691	120.993	207.316
3.3325	71.7333	120.908	207.359
3.335	71.7757	120.822	207.402
3.3375	71.8182	120.737	207.445
3.34	71.8608	120.652	207.487
3.3425	71.9034	120.567	207.529
3.345	71.9461	120.483	207.571
3.3475	71.9889	120.398	207.613
3.35	72.0318	120.314	207.654
3.3525	72.0747	120.23	207.695
3.355	72.1177	120.146	207.736
3.3575	72.1608	120.063	207.776
3.36	72.204	119.979	207.817
3.3625	72.2472	119.896	207.857
3.365	72.2905	119.813	207.897
3.3675	72.3339	119.73	207.936
3.37	72.3773	119.647	207.975
3.3725	72.4209	119.565	208.014
3.375	72.4644	119.482	208.053
3.3775	72.5081	119.4	208.092
3.38	72.5518	119.318	208.13
3.3825	72.5956	119.236	208.168
3.385	72.6394	119.155	208.206
3.3875	72.6833	119.073	208.243
3.39	72.7273	118.992	208.281
3.3925	72.7713	118.911	208.318
3.395	72.8154	118.83	208.354
3.3975	72.8596	118.75	208.391
3.4	72.9038	118.669	208.427
3.4025	72.9481	118.589	208.463
3.405	72.9924	118.509	208.499
3.4075	73.0368	118.429	208.534
3.41	73.0813	118.349	208.57
3.4125	73.1258	118.27	208.605
3.415	73.1703	118.19	208.639
3.4175	73.215	118.111	208.674
3.42	73.2596	118.032	208.708
3.4225	73.3044	117.953	208.742
3.425	73.3492	117.875	208.776
3.4275	73.394	117.796	208.81
3.43	73.4389	117.718	208.843
3.4325	73.4839	117.64	208.876
3.435	73.5289	117.562	208.909
3.4375	73.5739	117.484	208.942
3.44	73.6191	117.407	208.974
3.4425	73.6642	117.329	209.006
3.445	73.7094	117.252	209.038
3.4475	73.7547	117.175	209.07
3.45	73.8	117.098	209.102
3.4525	73.8453	117.022	209.133
3.455	73.8907	116.945	209.164
3.4575	73.9362	116.869	209.195
3.46	73.9817	116.793	209.225
3.4625	74.0272	116.717	209.256
3.465	74.0728	116.641	209.286
3.4675	74.1184	116.566	209.316
3.47	74.1641	116.491	209.345
3.4725	74.2098	116.416	209.375
3.475	74.2556	116.341	209.404
3.4775	74.3014	116.266	209.433
3.48	74.3472	116.191	209.462
3.4825	74.3931	116.117	209.49
3.485	74.4391	116.042	209.518
3.4875	74.485	115.968	209.547
3.49	74.531	115.895	209.574
3.4925	74.5771	115.821	209.602
3.495	74.6232	115.747	209.63
3.4975	74.6693	115.674	209.657
3.5	74.7154	115.601	209.684
3.5025	74.7616	115.528	209.711
3.505	74.8079	115.455	209.737
3.5075	74.8541	115.382	209.764
3.51	74.9004	115.31	209.79
3.5125	74.9468	115.238	209.816
3.515	74.9931	115.166	209.841
3.5175	75.0395	115.094	209.867
3.52	75.086	115.022	209.892
3.5225	75.1324	114.95	209.917
3.525	75.1789	114.879	209.942
3.5275	75.2255	114.808	209.967
3.53	75.272	114.737	209.991
3.5325	75.3186	114.666	210.015
3.535	75.3652	114.595	210.039
3.5375	75.4119	114.525	210.063
3.54	75.4586	114.454	210.087
3.5425	75.5053	114.384	210.11
3.545	75.552	114.314	210.134
3.5475	75.5988	114.245	210.157
3.55	75.6456	114.175	210.179
3.5525	75.6924	114.106	210.202
3.555	75.7392	114.036	210.224
3.5575	75.7861	113.967	210.247
3.56	75.833	113.898	210.269
3.5625	75.8799	113.83	210.29
3.565	75.9268	113.761	210.312
3.5675	75.9738	113.693	210.333
3.57	76.0208	113.624	210.355
3.5725	76.0678	113.556	210.376
3.575	76.1148	113.489	210.397
3.5775	76.1619	113.421	210.417
3.58	76.209	113.353	210.438
3.5825	76.2561	113.286	210.458
3.585	76.3032	113.219	210.478
3.5875	76.3503	113.152	210.498
3.59	76.3975	113.085	210.517
3.5925	76.4446	113.018	210.537
3.595	76.4918	112.952	210.556
3.5975	76.539	112.886	210.575
3.6	76.5862	112.82	210.594
3.6025	76.6335	112.754	210.613
3.605	76.6807	112.688	210.631
3.6075	76.728	112.622	210.65
3.61	76.7753	112.557	210.668
3.6125	76.8226	112.492	210.686
3.615	76.8699	112.426	210.704
3.6175	76.9172	112.362	210.721
3.62	76.9646	112.297	210.739
3.6225	77.012	112.232	210.756
3.625	77.0593	112.168	210.773
3.6275	77.1067	112.104	210.79
3.63	77.1541	112.039	210.806
3.6325	77.2015	111.976	210.823
3.635	77.2489	111.912	210.839
3.6375	77.2964	111.848	210.855
3.64	77.3438	111.785	210.871
3.6425	77.3912	111.722	210.887
3.645	77.4387	111.659	210.903
3.6475	77.4862	111.596	210.918
3.65	77.5336	111.533	210.933
3.6525	77.5811	111.47	210.949
3.655	77.6286	111.408	210.963
3.6575	77.6761	111.346	210.978
3.66	77.7236	111.284	210.993
3.6625	77.7711	111.222	211.007
3.665	77.8186	111.16	211.021
3.6675	77.8662	111.099	211.035
3.67	77.9137	111.037	211.049
3.6725	77.9612	110.976	211.063
3.675	78.0087	110.915	211.076
3.6775	78.0563	110.854	211.09
3.68	78.1038	110.793	211.103
3.6825	78.1514	110.733	211.116
3.685	78.1989	110.672	211.129
3.6875	78.2465	110.612	211.142
3.69	78.294	110.552	211.154
3.6925	78.3416	110.492	211.166
3.695	78.3891	110.432	211.179
3.6975	78.4367	110.373	211.191
3.7	78.4842	110.313	211.202
3.7025	78.5318	110.254	211.214
3.705	78.5794	110.195	211.226
3.7075	78.6269	110.136	211.237
3.71	78.6745	110.077	211.248
3.7125	78.722	110.019	211.259
3.715	78.7696	109.96	211.27
3.7175	78.8171	109.902	211.281
3.72	78.8647	109.844	211.292
3.7225	78.9122	109.786	211.302
3.725	78.9598	109.728	211.312
3.7275	79.0073	109.67	211.322
3.73	79.0548	109.613	211.332
3.7325	79.1023	109.556	211.342
3.735	79.1499	109.498	211.352
3.7375	79.1974	109.441	211.361
3.74	79.2449	109.385	211.37
3.7425	79.2924	109.328	211.38
3.745	79.3399	109.271	211.389
3.7475	79.3874	109.215	211.398
3.75	79.4349	109.159	211.406
3.7525	79.4824	109.103	211.415
3.755	79.5298	109.047	211.423
3.7575	79.5773	108.991	211.432
3.76	79.6248	108.936	211.44
3.7625	79.6722	108.88	211.448
3.765	79.7196	108.825	211.455
3.7675	79.7671	108.77	211.463
3.77	79.8145	108.715	211.471
3.7725	79.8619	108.66	211.478
3.775	79.9093	108.606	211.485
3.7775	79.9567	108.551	211.492
3.78	80.004	108.497	211.499
3.7825	80.0514	108.443	211.506
3.785	80.0988	108.389	211.513
3.7875	80.1461	108.335	211.519
3.79	80.1934	108.281	211.526
3.7925	80.2407	108.227	211.532
3.795	80.288	108.174	211.538
3.7975	80.3353	108.121	211.544
3.8	80.3826	108.068	211.55
3.8025	80.4299	108.015	211.555
3.805	80.4771	107.962	211.561
3.8075	80.5243	107.909	211.566
3.81	80.5716	107.857	211.571
3.8125	80.6188	107.805	211.577
3.815	80.666	107.753	211.582
3.8175	80.7131	107.701	211.586
3.82	80.7603	107.649	211.591
3.8225	80.8074	107.597	211.596
3.825	80.8545	107.545	211.6
3.8275	80.9016	107.494	211.604
3.83	80.9487	107.443	211.608
3.8325	80.9958	107.392	211.613
3.835	81.0428	107.341	211.616
3.8375	81.0899	107.29	211.62
3.84	81.1369	107.239	211.624
3.8425	81.1839	107.189	211.627
3.845	81.2309	107.138	211.631
3.8475	81.2778	107.088	211.634
3.85	81.3247	107.038	211.637
3.8525	81.3717	106.988	211.64
3.855	81.4186	106.939	211.643
3.8575	81.4654	106.889	211.646
3.86	81.5123	106.839	211.648
3.8625	81.5591	106.79	211.651
3.865	81.6059	106.741	211.653
3.8675	81.6527	106.692	211.655
3.87	81.6995	106.643	211.657
3.8725	81.7462	106.594	211.659
3.875	81.7929	106.546	211.661
3.8775	81.8396	106.497	211.663
3.88	81.8863	106.449	211.665
3.8825	81.933	106.401	211.666
3.885	81.9796	106.353	211.667
3.8875	82.0262	106.305	211.669
3.89	82.0728	106.258	211.67
3.8925	82.1193	106.21	211.671
3.895	82.1658	106.163	211.672
3.8975	82.2124	106.115	211.672
3.9	82.2588	106.068	211.673
3.9025	82.3053	106.021	211.674
3.905	82.3517	105.974	211.674
3.9075	82.3981	105.928	211.674
3.91	82.4445	105.881	211.674
3.9125	82.4908	105.835	211.674
3.915	82.5371	105.789	211.674
3.9175	82.5834	105.742	211.674
3.92	82.6297	105.696	211.674
3.9225	82.6759	105.651	211.673
3.925	82.7222	105.605	211.673
3.9275	82.7683	105.559	211.672
3.93	82.8145	105.514	211.672
3.9325	82.8606	105.469	211.671
3.935	82.9067	105.424	211.67
3.9375	82.9528	105.379	211.669
3.94	82.9988	105.334	211.667
3.9425	83.0448	105.289	211.666
3.945	83.0908	105.244	211.665
3.9475	83.1367	105.2	211.663
3.95	83.1826	105.156	211.662
3.9525	83.2285	105.112	211.66
3.955	83.2744	105.068	211.658
3.9575	83.3202	105.024	211.656
3.96	83.366	104.98	211.654
3.9625	83.4117	104.936	211.652
3.965	83.4575	104.893	211.65
3.9675	83.5032	104.85	211.647
3.97	83.5488	104.807	211.645
3.9725	83.5944	104.764	211.642
3.975	83.64	104.721	211.639
3.9775	83.6856	104.678	211.637
3.98	83.7311	104.635	211.634
3.9825	83.7766	104.593	211.631
3.985	83.8221	104.55	211.628
3.9875	83.8675	104.508	211.624
3.99	83.9129	104.466	211.621
3.9925	83.9583	104.424	211.618
3.995	84.0036	104.382	211.614
3.9975	84.0489	104.341	211.61
4	84.0941	104.299	211.607
4.0025	84.1393	104.258	211.603
4.005	84.1845	104.216	211.599
4.0075	84.2297	104.175	211.595
4.01	84.2748	104.134	211.591
4.0125	84.3199	104.093	211.587
4.015	84.3649	104.053	211.582
4.0175	84.4099	104.012	211.578
4.02	84.4549	103.972	211.574
4.0225	84.4998	103.931	211.569
4.025	84.5447	103.891	211.564
4.0275	84.5895	103.851	211.56
4.03	84.6343	103.811	211.555
4.0325	84.6791	103.771	211.55
4.035	84.7238	103.732	211.545
4.0375	84.7685	103.692	211.539
4.04	84.8132	103.653	211.534
4.0425	84.8578	103.613	211.529
4.045	84.9024	103.574	211.523
4.0475	84.9469	103.535	211.518
4.05	84.9914	103.496	211.512
4.0525	85.0359	103.457	211.507
4.055	85.0803	103.419	211.501
4.0575	85.1247	103.38	211.495
4.06	85.1691	103.342	211.489
4.0625	85.2134	103.304	211.483
4.065	85.2576	103.266	211.477
4.0675	85.3018	103.228	211.471
4.07	85.346	103.19	211.464
4.0725	85.3902	103.152	211.458
4.075	85.4343	103.114	211.451
4.0775	85.4783	103.077	211.445
4.08	85.5223	103.039	211.438
4.0825	85.5663	103.002	211.431
4.085	85.6102	102.965	211.425
4.0875	85.6541	102.928	211.418
4.09	85.698	102.891	211.411
4.0925	85.7418	102.855	211.404
4.095	85.7855	102.818	211.397
4.0975	85.8293	102.781	211.389
4.1	85.8729	102.745	211.382
4.1025	85.9166	102.709	211.375
4.105	85.9601	102.673	211.367
4.1075	86.0037	102.637	211.359
4.11	86.0472	102.601	211.352
4.1125	86.0906	102.565	211.344
4.115	86.134	102.53	211.336
4.1175	86.1774	102.494	211.328
4.12	86.2207	102.459	211.32
4.1225	86.264	102.424	211.312
4.125	86.3072	102.388	211.304
4.1275	86.3504	102.353	211.296
4.13	86.3936	102.319	211.288
4.1325	86.4367	102.284	211.279
4.135	86.4797	102.249	211.271
4.1375	86.5227	102.215	211.263
4.14	86.5657	102.18	211.254
4.1425	86.6086	102.146	211.245
4.145	86.6515	102.112	211.237
4.1475	86.6943	102.078	211.228
4.15	86.737	102.044	211.219
4.1525	86.7798	102.01	211.21
4.155	86.8224	101.977	211.201
4.1575	86.8651	101.943	211.192
4.16	86.9077	101.91	211.183
4.1625	86.9502	101.876	211.173
4.165	86.9927	101.843	211.164
4.1675	87.0351	101.81	211.155
4.17	87.0775	101.777	211.145
4.1725	87.1199	101.744	211.136
4.175	87.1622	101.712	211.126
4.1775	87.2044	101.679	211.116
4.18	87.2466	101.647	211.107
4.1825	87.2888	101.614	211.097
4.185	87.3309	101.582	211.087
4.1875	87.3729	101.55	211.077
4.19	87.4149	101.518	211.067
4.1925	87.4569	101.486	211.057
4.195	87.4988	101.454	211.047
4.1975	87.5406	101.423	211.037
4.2	87.5824	101.391	211.026
4.2025	87.6242	101.36	211.016
4.205	87.6659	101.328	211.006
4.2075	87.7076	101.297	210.995
4.21	87.7492	101.266	210.985
4.2125	87.7907	101.235	210.974
4.215	87.8322	101.204	210.963
4.2175	87.8737	101.174	210.953
4.22	87.9151	101.143	210.942
4.2225	87.9564	101.112	210.931
4.225	87.9977	101.082	210.92
4.2275	88.039	101.052	210.909
4.23	88.0802	101.022	210.898
4.2325	88.1213	100.992	210.887
4.235	88.1624	100.962	210.876
4.2375	88.2035	100.932	210.865
4.24	88.2445	100.902	210.853
4.2425	88.2854	100.873	210.842
4.245	88.3263	100.843	210.831
4.2475	88.3671	100.814	210.819
4.25	88.4079	100.784	210.808
4.2525	88.4486	100.755	210.796
4.255	88.4893	100.726	210.784
4.2575	88.5299	100.697	210.773
4.26	88.5705	100.668	210.761
4.2625	88.611	100.64	210.749
4.265	88.6515	100.611	210.737
4.2675	88.6919	100.583	210.725
4.27	88.7323	100.554	210.713
4.2725	88.7726	100.526	210.701
4.275	88.8128	100.498	210.689
4.2775	88.853	100.47	210.677
4.28	88.8932	100.442	210.665
4.2825	88.9332	100.414	210.653
4.285	88.9733	100.386	210.64
4.2875	89.0133	100.359	210.628
4.29	89.0532	100.331	210.616
4.2925	89.0931	100.304	210.603
4.295	89.1329	100.276	210.591
4.2975	89.1726	100.249	210.578
4.3	89.2123	100.222	210.565
4.3025	89.252	100.195	210.553
4.305	89.2916	100.168	210.54
4.3075	89.3311	100.142	210.527
4.31	89.3706	100.115	210.514
4.3125	89.4101	100.088	210.502
4.315	89.4494	100.062	210.489
4.3175	89.4888	100.036	210.476
4.32	89.528	100.009	210.463
4.3225	89.5672	99.9833	210.45
4.325	89.6064	99.9572	210.436
4.3275	89.6455	99.9313	210.423
4.33	89.6845	99.9055	210.41
4.3325	89.7235	99.8798	210.397
4.335	89.7624	99.8542	210.383
4.3375	89.8013	99.8287	210.37
4.34	89.8401	99.8033	210.357
4.3425	89.8789	99.778	210.343
4.345	89.9176	99.7528	210.33
4.3475	89.9562	99.7277	210.316
4.35	89.9948	99.7027	210.302
4.3525	90.0334	99.6778	210.289
4.355	90.0718	99.653	210.275
4.3575	90.1102	99.6283	210.261
4.36	90.1486	99.6037	210.248
4.3625	90.1869	99.5793	210.234
4.365	90.2251	99.5549	210.22
4.3675	90.2633	99.5306	210.206
4.37	90.3015	99.5064	210.192
4.3725	90.3395	99.4824	210.178
4.375	90.3776	99.4584	210.164
4.3775	90.4155	99.4345	210.15
4.38	90.4534	99.4107	210.136
4.3825	90.4912	99.3871	210.122
4.385	90.529	99.3635	210.107
4.3875	90.5668	99.34	210.093
4.39	90.6044	99.3166	210.079
4.3925	90.642	99.2933	210.065
4.395	90.6796	99.2702	210.05
4.3975	90.7171	99.2471	210.036
4.4	90.7545	99.2241	210.021
4.4025	90.7919	99.2012	210.007
4.405	90.8292	99.1784	209.992
4.4075	90.8664	99.1557	209.978
4.41	90.9036	99.1331	209.963
4.4125	90.9408	99.1106	209.949
4.415	90.9778	99.0882	209.934
4.4175	91.0149	99.0659	209.919
4.42	91.0518	99.0437	209.904
4.4225	91.0887	99.0216	209.89
4.425	91.1255	98.9996	209.875
4.4275	91.1623	98.9777	209.86
4.43	91.199	98.9559	209.845
4.4325	91.2357	98.9342	209.83
4.435	91.2723	98.9125	209.815
4.4375	91.3088	98.891	209.8
4.44	91.3453	98.8696	209.785
4.4425	91.3817	98.8482	209.77
4.445	91.4181	98.827	209.755
4.4475	91.4544	98.8058	209.74
4.45	91.4906	98.7847	209.725
4.4525	91.5268	98.7638	209.709
4.455	91.5629	98.7429	209.694
4.4575	91.599	98.7221	209.679
4.46	91.635	98.7014	209.664
4.4625	91.6709	98.6808	209.648
4.465	91.7068	98.6603	209.633
4.4675	91.7426	98.6399	209.617
4.47	91.7784	98.6196	209.602
4.4725	91.8141	98.5994	209.587
4.475	91.8497	98.5793	209.571
4.4775	91.8853	98.5592	209.556
4.48	91.9208	98.5393	209.54
4.4825	91.9562	98.5194	209.524
4.485	91.9916	98.4996	209.509
4.4875	92.0269	98.48	209.493
4.49	92.0622	98.4604	209.477
4.4925	92.0974	98.4409	209.462
4.495	92.1326	98.4215	209.446
4.4975	92.1676	98.4022	209.43
4.5	92.2027	98.383	209.414
4.5025	92.2376	98.3638	209.399
4.505	92.2725	98.3448	209.383
4.5075	92.3073	98.3258	209.367
4.51	92.3421	98.307	209.351
4.5125	92.3768	98.2882	209.335
4.515	92.4115	98.2695	209.319
4.5175	92.4461	98.2509	209.303
4.52	92.4806	98.2324	209.287
4.5225	92.5151	98.214	209.271
4.525	92.5495	98.1956	209.255
4.5275	92.5838	98.1774	209.239
4.53	92.6181	98.1592	209.223
4.5325	92.6523	98.1412	209.207
4.535	92.6864	98.1232	209.19
4.5375	92.7205	98.1053	209.174
4.54	92.7546	98.0875	209.158
4.5425	92.7885	98.0697	209.142
4.545	92.8224	98.0521	209.125
4.5475	92.8563	98.0345	209.109
4.55	92.89	98.0171	209.093
4.5525	92.9238	97.9997	209.077
4.555	92.9574	97.9824	209.06
4.5575	92.991	97.9652	209.044
4.56	93.0245	97.9481	209.027
4.5625	93.058	97.931	209.011
4.565	93.0914	97.9141	208.995
4.5675	93.1247	97.8972	208.978
4.57	93.158	97.8804	208.962
4.5725	93.1912	97.8637	208.945
4.575	93.2244	97.8471	208.929
4.5775	93.2574	97.8306	208.912
4.58	93.2905	97.8141	208.895
4.5825	93.3234	97.7978	208.879
4.585	93.3563	97.7815	208.862
4.5875	93.3892	97.7653	208.846
4.59	93.4219	97.7492	208.829
4.5925	93.4546	97.7331	208.812
4.595	93.4873	97.7172	208.796
4.5975	93.5199	97.7013	208.779
4.6	93.5524	97.6855	208.762
4.6025	93.5848	97.6698	208.745
4.605	93.6172	97.6542	208.729
4.6075	93.6495	97.6387	208.712
4.61	93.6818	97.6232	208.695
4.6125	93.714	97.6078	208.678
4.615	93.7461	97.5925	208.661
4.6175	93.7782	97.5773	208.644
4.62	93.8102	97.5622	208.628
4.6225	93.8422	97.5471	208.611
4.625	93.874	97.5321	208.594
4.6275	93.9059	97.5172	208.577
4.63	93.9376	97.5024	208.56
4.6325	93.9693	97.4877	208.543
4.635	94.0009	97.473	208.526
4.6375	94.0325	97.4584	208.509
4.64	94.064	97.4439	208.492
4.6425	94.0954	97.4295	208.475
4.645	94.1268	97.4152	208.458
4.6475	94.1581	97.4009	208.441
4.65	94.1893	97.3867	208.424
4.6525	94.2205	97.3726	208.407
4.655	94.2516	97.3586	208.39
4.6575	94.2827	97.3446	208.373
4.66	94.3137	97.3308	208.356
4.6625	94.3446	97.317	208.338
4.665	94.3754	97.3032	208.321
4.6675	94.4062	97.2896	208.304
4.67	94.437	97.276	208.287
4.6725	94.4676	97.2625	208.27
4.675	94.4982	97.2491	208.253
4.6775	94.5288	97.2358	208.235
4.68	94.5592	97.2225	208.218
4.6825	94.5897	97.2093	208.201
4.685	94.62	97.1962	208.184
4.6875	94.6503	97.1832	208.167
4.69	94.6805	97.1702	208.149
4.6925	94.7106	97.1573	208.132
4.695	94.7407	97.1445	208.115
4.6975	94.7708	97.1318	208.097
4.7	94.8007	97.1191	208.08
4.7025	94.8306	97.1066	208.063
4.705	94.8604	97.094	208.046
4.7075	94.8902	97.0816	208.028
4.71	94.9199	97.0692	208.011
4.7125	94.9495	97.0569	207.994
4.715	94.9791	97.0447	207.976
4.7175	95.0086	97.0326	207.959
4.72	95.0381	97.0205	207.941
4.7225	95.0674	97.0085	207.924
4.725	95.0968	96.9966	207.907
4.7275	95.126	96.9847	207.889
4.73	95.1552	96.973	207.872
4.7325	95.1843	96.9612	207.854
4.735	95.2134	96.9496	207.837
4.7375	95.2424	96.938	207.82
4.74	95.2713	96.9265	207.802
4.7425	95.3001	96.9151	207.785
4.745	95.3289	96.9038	207.767
4.7475	95.3577	96.8925	207.75
4.75	95.3863	96.8813	207.732
4.7525	95.415	96.8701	207.715
4.755	95.4435	96.8591	207.697
4.7575	95.472	96.8481	207.68
4.76	95.5004	96.8371	207.662
4.7625	95.5287	96.8263	207.645
4.765	95.557	96.8155	207.627
4.7675	95.5852	96.8048	207.61
4.77	95.6134	96.7941	207.592
4.7725	95.6415	96.7836	207.575
4.775	95.6695	96.773	207.557
4.7775	95.6974	96.7626	207.54
4.78	95.7253	96.7522	207.522
4.7825	95.7532	96.7419	207.505
4.785	95.7809	96.7317	207.487
4.7875	95.8086	96.7215	207.47
4.79	95.8363	96.7114	207.452
4.7925	95.8638	96.7014	207.435
4.795	95.8913	96.6914	207.417
4.7975	95.9188	96.6815	207.4
4.8	95.9462	96.6717	207.382
4.8025	95.9735	96.6619	207.365
4.805	96.0007	96.6522	207.347
4.8075	96.0279	96.6426	207.329
4.81	96.055	96.633	207.312
4.8125	96.0821	96.6235	207.294
4.815	96.1091	96.6141	207.277
4.8175	96.136	96.6047	207.259
4.82	96.1629	96.5954	207.242
4.8225	96.1897	96.5862	207.224
4.825	96.2164	96.577	207.207
4.8275	96.2431	96.5679	207.189
4.83	96.2697	96.5589	207.171
4.8325	96.2962	96.5499	207.154
4.835	96.3227	96.541	207.136
4.8375	96.3491	96.5322	207.119
4.84	96.3754	96.5234	207.101
4.8425	96.4017	96.5147	207.084
4.845	96.4279	96.506	207.066
4.8475	96.4541	96.4974	207.048
4.85	96.4802	96.4889	207.031
4.8525	96.5062	96.4805	207.013
4.855	96.5322	96.4721	206.996
4.8575	96.5581	96.4637	206.978
4.86	96.5839	96.4555	206.961
4.8625	96.6097	96.4473	206.943
4.865	96.6354	96.4391	206.926
4.8675	96.661	96.431	206.908
4.87	96.6866	96.423	206.89
4.8725	96.7121	96.4151	206.873
4.875	96.7375	96.4072	206.855
4.8775	96.7629	96.3993	206.838
4.88	96.7882	96.3916	206.82
4.8825	96.8135	96.3839	206.803
4.885	96.8387	96.3762	206.785
4.8875	96.8638	96.3686	206.768
4.89	96.8889	96.3611	206.75
4.8925	96.9139	96.3536	206.732
4.895	96.9388	96.3462	206.715
4.8975	96.9637	96.3389	206.697
4.9	96.9885	96.3316	206.68
4.9025	97.0132	96.3244	206.662
4.905	97.0379	96.3172	206.645
4.9075	97.0625	96.3101	206.627
4.91	97.0871	96.3031	206.61
4.9125	97.1115	96.2961	206.592
4.915	97.136	96.2892	206.575
4.9175	97.1603	96.2823	206.557
4.92	97.1846	96.2755	206.54
4.9225	97.2089	96.2688	206.522
4.925	97.233	96.2621	206.505
4.9275	97.2571	96.2554	206.487
4.93	97.2812	96.2489	206.47
4.9325	97.3051	96.2423	206.453
4.935	97.3291	96.2359	206.435
4.9375	97.3529	96.2295	206.418
4.94	97.3767	96.2232	206.4
4.9425	97.4004	96.2169	206.383
4.945	97.4241	96.2107	206.365
4.9475	97.4477	96.2045	206.348
4.95	97.4712	96.1984	206.33
4.9525	97.4947	96.1923	206.313
4.955	97.5181	96.1863	206.296
4.9575	97.5414	96.1804	206.278
4.96	97.5647	96.1745	206.261
4.9625	97.5879	96.1687	206.243
4.965	97.611	96.1629	206.226
4.9675	97.6341	96.1572	206.209
4.97	97.6571	96.1515	206.191
4.9725	97.6801	96.1459	206.174
4.975	97.703	96.1404	206.157
4.9775	97.7258	96.1349	206.139
4.98	97.7486	96.1294	206.122
4.9825	97.7713	96.1241	206.105
4.985	97.794	96.1187	206.087
4.9875	97.8165	96.1135	206.07
4.99	97.8391	96.1082	206.053
4.9925	97.8615	96.1031	206.035
4.995	97.8839	96.098	206.018
4.9975	97.9062	96.0929	206.001
5	97.9285	96.0879	205.984
5.0025	97.9507	96.083	205.966
5.005	97.9729	96.0781	205.949
5.0075	97.9949	96.0732	205.932
5.01	98.017	96.0684	205.915
5.0125	98.0389	96.0637	205.897
5.015	98.0608	96.059	205.88
5.0175	98.0826	96.0544	205.863
5.02	98.1044	96.0498	205.846
5.0225	98.1261	96.0453	205.829
5.025	98.1477	96.0408	205.811
5.0275	98.1693	96.0364	205.794
5.03	98.1908	96.032	205.777
5.0325	98.2123	96.0277	205.76
5.035	98.2337	96.0234	205.743
5.0375	98.255	96.0192	205.726
5.04	98.2763	96.015	205.709
5.0425	98.2975	96.0109	205.692
5.045	98.3186	96.0069	205.675
5.0475	98.3397	96.0029	205.657
5.05	98.3607	95.9989	205.64
5.0525	98.3817	95.995	205.623
5.055	98.4026	95.9911	205.606
5.0575	98.4234	95.9873	205.589
5.06	98.4442	95.9836	205.572
5.0625	98.4649	95.9799	205.555
5.065	98.4855	95.9762	205.538
5.0675	98.5061	95.9726	205.521
5.07	98.5266	95.969	205.504
5.0725	98.5471	95.9655	205.487
5.075	98.5675	95.9621	205.47
5.0775	98.5878	95.9587	205.454
5.08	98.6081	95.9553	205.437
5.0825	98.6283	95.952	205.42
5.085	98.6485	95.9487	205.403
5.0875	98.6686	95.9455	205.386
5.09	98.6886	95.9423	205.369
5.0925	98.7086	95.9392	205.352
5.095	98.7285	95.9361	205.335
5.0975	98.7483	95.9331	205.319
5.1	98.7681	95.9301	205.302
5.1025	98.7878	95.9272	205.285
5.105	98.8075	95.9243	205.268
5.1075	98.8271	95.9215	205.251
5.11	98.8467	95.9187	205.235
5.1125	98.8661	95.9159	205.218
5.115	98.8856	95.9132	205.201
5.1175	98.9049	95.9106	205.184
5.12	98.9242	95.908	205.168
5.1225	98.9435	95.9054	205.151
5.125	98.9626	95.9029	205.134
5.1275	98.9818	95.9005	205.118
5.13	99.0008	95.898	205.101
5.1325	99.0198	95.8957	205.085
5.135	99.0387	95.8933	205.068
5.1375	99.0576	95.8911	205.051
5.14	99.0764	95.8888	205.035
5.1425	99.0952	95.8866	205.018
5.145	99.1139	95.8845	205.002
5.1475	99.1325	95.8824	204.985
5.15	99.1511	95.8803	204.969
5.1525	99.1696	95.8783	204.952
5.155	99.1881	95.8763	204.936
5.1575	99.2065	95.8744	204.919
5.16	99.2248	95.8725	204.903
5.1625	99.2431	95.8707	204.886
5.165	99.2613	95.8689	204.87
5.1675	99.2794	95.8672	204.853
5.17	99.2975	95.8655	204.837
5.1725	99.3156	95.8638	204.821
5.175	99.3336	95.8622	204.804
5.1775	99.3515	95.8606	204.788
5.18	99.3693	95.8591	204.772
5.1825	99.3871	95.8576	204.755
5.185	99.4049	95.8561	204.739
5.1875	99.4225	95.8547	204.723
5.19	99.4402	95.8534	204.706
5.1925	99.4577	95.852	204.69
5.195	99.4752	95.8508	204.674
5.1975	99.4927	95.8495	204.658
5.2	99.5101	95.8483	204.642
5.2025	99.5274	95.8472	204.625
5.205	99.5447	95.8461	204.609
5.2075	99.5619	95.845	204.593
5.21	99.579	95.844	204.577
5.2125	99.5961	95.843	204.561
5.215	99.6131	95.842	204.545
5.2175	99.6301	95.8411	204.529
5.22	99.647	95.8403	204.513
5.2225	99.6639	95.8394	204.497
5.225	99.6807	95.8387	204.481
5.2275	99.6974	95.8379	204.465
5.23	99.7141	95.8372	204.449
5.2325	99.7307	95.8365	204.433
5.235	99.7473	95.8359	204.417
5.2375	99.7638	95.8353	204.401
5.24	99.7802	95.8348	204.385
5.2425	99.7966	95.8343	204.369
5.245	99.813	95.8338	204.353
5.2475	99.8292	95.8334	204.337
5.25	99.8455	95.833	204.322
5.2525	99.8616	95.8326	204.306
5.255	99.8777	95.8323	204.29
5.2575	99.8938	95.8321	204.274
5.26	99.9098	95.8318	204.258
5.2625	99.9257	95.8316	204.243
5.265	99.9416	95.8315	204.227
5.2675	99.9574	95.8313	204.211
5.27	99.9731	95.8313	204.196
5.2725	99.9888	95.8312	204.18
5.275	100.004	95.8312	204.164
5.2775	100.02	95.8312	204.149
5.28	100.036	95.8313	204.133
5.2825	100.051	95.8314	204.118
5.285	100.067	95.8315	204.102
5.2875	100.082	95.8317	204.086
5.29	100.097	95.8319	204.071
5.2925	100.112	95.8322	204.055
5.295	100.128	95.8325	204.04
5.2975	100.143	95.8328	204.024
5.3	100.158	95.8332	204.009
5.3025	100.173	95.8336	203.994
5.305	100.188	95.834	203.978
5.3075	100.203	95.8345	203.963
5.31	100.218	95.835	203.947
5.3125	100.232	95.8355	203.932
5.315	100.247	95.8361	203.917
5.3175	100.262	95.8367	203.902
5.32	100.276	95.8373	203.886
5.3225	100.291	95.838	203.871
5.325	100.306	95.8387	203.856
5.3275	100.32	95.8395	203.841
5.33	100.334	95.8403	203.825
5.3325	100.349	95.8411	203.81
5.335	100.363	95.8419	203.795
5.3375	100.377	95.8428	203.78
5.34	100.391	95.8437	203.765
5.3425	100.406	95.8447	203.75
5.345	100.42	95.8457	203.735
5.3475	100.434	95.8467	203.72
5.35	100.448	95.8478	203.705
5.3525	100.462	95.8488	203.69
5.355	100.475	95.85	203.675
5.3575	100.489	95.8511	203.66
5.36	100.503	95.8523	203.645
5.3625	100.517	95.8535	203.63
5.365	100.53	95.8548	203.615
5.3675	100.544	95.8561	203.6
5.37	100.557	95.8574	203.585
5.3725	100.571	95.8587	203.57
5.375	100.584	95.8601	203.556
5.3775	100.598	95.8615	203.541
5.38	100.611	95.863	203.526
5.3825	100.624	95.8645	203.511
5.385	100.637	95.866	203.497
5.3875	100.651	95.8675	203.482
5.39	100.664	95.8691	203.467
5.3925	100.677	95.8707	203.453
5.395	100.69	95.8724	203.438
5.3975	100.703	95.874	203.423
5.4	100.716	95.8757	203.409
5.4025	100.728	95.8775	203.394
5.405	100.741	95.8792	203.38
5.4075	100.754	95.881	203.365
5.41	100.767	95.8828	203.351
5.4125	100.779	95.8847	203.336
5.415	100.792	95.8866	203.322
5.4175	100.804	95.8885	203.307
5.42	100.817	95.8904	203.293
5.4225	100.829	95.8924	203.278
5.425	100.841	95.8944	203.264
5.4275	100.854	95.8964	203.25
5.43	100.866	95.8985	203.235
5.4325	100.878	95.9006	203.221
5.435	100.89	95.9027	203.207
5.4375	100.902	95.9048	203.193
5.44	100.914	95.907	203.178
5.4425	100.926	95.9092	203.164
5.445	100.938	95.9115	203.15
5.4475	100.95	95.9137	203.136
5.45	100.962	95.916	203.122
5.4525	100.974	95.9183	203.108
5.455	100.986	95.9207	203.094
5.4575	100.997	95.9231	203.08
5.46	101.009	95.9255	203.066
5.4625	101.021	95.9279	203.052
5.465	101.032	95.9304	203.038
5.4675	101.043	95.9329	203.024
5.47	101.055	95.9354	203.01
5.4725	101.066	95.9379	202.996
5.475	101.078	95.9405	202.982
5.4775	101.089	95.9431	202.968
5.48	101.1	95.9457	202.954
5.4825	101.111	95.9484	202.94
5.485	101.122	95.951	202.927
5.4875	101.133	95.9538	202.913
5.49	101.144	95.9565	202.899
5.4925	101.155	95.9592	202.885
5.495	101.166	95.962	202.872
5.4975	101.177	95.9648	202.858
5.5	101.188	95.9677	202.844
5.5025	101.199	95.9705	202.831
5.505	101.209	95.9734	202.817
5.5075	101.22	95.9763	202.804
5.51	101.231	95.9793	202.79
5.5125	101.241	95.9823	202.776
5.515	101.252	95.9852	202.763
5.5175	101.262	95.9883	202.749
5.52	101.273	95.9913	202.736
5.5225	101.283	95.9944	202.723
5.525	101.293	95.9975	202.709
5.5275	101.304	96.0006	202.696
5.53	101.314	96.0037	202.682
5.5325	101.324	96.0069	202.669
5.535	101.334	96.0101	202.656
5.5375	101.344	96.0133	202.643
5.54	101.354	96.0165	202.629
5.5425	101.364	96.0198	202.616
5.545	101.374	96.0231	202.603
5.5475	101.384	96.0264	202.59
5.55	101.394	96.0297	202.576
5.5525	101.404	96.0331	202.563
5.555	101.413	96.0365	202.55
5.5575	101.423	96.0399	202.537
5.56	101.433	96.0433	202.524
5.5625	101.442	96.0467	202.511
5.565	101.452	96.0502	202.498
5.5675	101.461	96.0537	202.485
5.57	101.471	96.0572	202.472
5.5725	101.48	96.0608	202.459
5.575	101.489	96.0643	202.446
5.5775	101.499	96.0679	202.433
5.58	101.508	96.0715	202.421
5.5825	101.517	96.0752	202.408
5.585	101.526	96.0788	202.395
5.5875	101.535	96.0825	202.382
5.59	101.544	96.0862	202.369
5.5925	101.553	96.0899	202.357
5.595	101.562	96.0937	202.344
5.5975	101.571	96.0974	202.331
5.6	101.58	96.1012	202.319
5.6025	101.589	96.105	202.306
5.605	101.598	96.1089	202.293
5.6075	101.607	96.1127	202.281
5.61	101.615	96.1166	202.268
5.6125	101.624	96.1205	202.256
5.615	101.632	96.1244	202.243
5.6175	101.641	96.1283	202.231
5.62	101.65	96.1323	202.218
5.6225	101.658	96.1362	202.206
5.625	101.666	96.1402	202.193
5.6275	101.675	96.1443	202.181
5.63	101.683	96.1483	202.169
5.6325	101.691	96.1523	202.156
5.635	101.7	96.1564	202.144
5.6375	101.708	96.1605	202.132
5.64	101.716	96.1646	202.119
5.6425	101.724	96.1688	202.107
5.645	101.732	96.1729	202.095
5.6475	101.74	96.1771	202.083
5.65	101.748	96.1813	202.071
5.6525	101.756	96.1855	202.059
5.655	101.764	96.1897	202.047
5.6575	101.772	96.194	202.034
5.66	101.779	96.1983	202.022
5.6625	101.787	96.2025	202.01
5.665	101.795	96.2069	201.998
5.6675	101.802	96.2112	201.986
5.67	101.81	96.2155	201.974
5.6725	101.818	96.2199	201.963
5.675	101.825	96.2243	201.951
5.6775	101.833	96.2287	201.939
5.68	101.84	96.2331	201.927
5.6825	101.847	96.2375	201.915
5.685	101.855	96.242	201.903
5.6875	101.862	96.2464	201.892
5.69	101.869	96.2509	201.88
5.6925	101.876	96.2554	201.868
5.695	101.884	96.26	201.856
5.6975	101.891	96.2645	201.845
5.7	101.898	96.2691	201.833
5.7025	101.905	96.2736	201.822
5.705	101.912	96.2782	201.81
5.7075	101.919	96.2828	201.798
5.71	101.926	96.2875	201.787
5.7125	101.932	96.2921	201.775
5.715	101.939	96.2968	201.764
5.7175	101.946	96.3014	201.752
5.72	101.953	96.3061	201.741
5.7225	101.959	96.3109	201.73
5.725	101.966	96.3156	201.718
5.7275	101.973	96.3203	201.707
5.73	101.979	96.3251	201.696
5.7325	101.986	96.3299	201.684
5.735	101.992	96.3346	201.673
5.7375	101.999	96.3394	201.662
5.74	102.005	96.3443	201.651
5.7425	102.011	96.3491	201.639
5.745	102.018	96.354	201.628
5.7475	102.024	96.3588	201.617
5.75	102.03	96.3637	201.606
5.7525	102.036	96.3686	201.595
5.755	102.043	96.3735	201.584
5.7575	102.049	96.3785	201.573
5.76	102.055	96.3834	201.562
5.7625	102.061	96.3884	201.551
5.765	102.067	96.3933	201.54
5.7675	102.073	96.3983	201.529
5.77	102.079	96.4033	201.518
5.7725	102.084	96.4083	201.507
5.775	102.09	96.4134	201.496
5.7775	102.096	96.4184	201.486
5.78	102.102	96.4235	201.475
5.7825	102.108	96.4285	201.464
5.785	102.113	96.4336	201.453
5.7875	102.119	96.4387	201.442
5.79	102.124	96.4439	201.432
5.7925	102.13	96.449	201.421
5.795	102.135	96.4541	201.41
5.7975	102.141	96.4593	201.4
5.8	102.146	96.4644	201.389
5.8025	102.152	96.4696	201.379
5.805	102.157	96.4748	201.368
5.8075	102.162	96.48	201.358
5.81	102.168	96.4853	201.347
5.8125	102.173	96.4905	201.337
5.815	102.178	96.4957	201.326
5.8175	102.183	96.501	201.316
5.82	102.188	96.5063	201.306
5.8225	102.193	96.5116	201.295
5.825	102.198	96.5169	201.285
5.8275	102.203	96.5222	201.275
5.83	102.208	96.5275	201.264
5.8325	102.213	96.5328	201.254
5.835	102.218	96.5382	201.244
5.8375	102.223	96.5435	201.234
5.84	102.228	96.5489	201.223
5.8425	102.232	96.5543	201.213
5.845	102.237	96.5597	201.203
5.8475	102.242	96.5651	201.193
5.85	102.246	96.5705	201.183
5.8525	102.251	96.5759	201.173
5.855	102.256	96.5814	201.163
5.8575	102.26	96.5868	201.153
5.86	102.265	96.5923	201.143
5.8625	102.269	96.5978	201.133
5.865	102.274	96.6033	201.123
5.8675	102.278	96.6087	201.113
5.87	102.282	96.6143	201.103
5.8725	102.287	96.6198	201.094
5.875	102.291	96.6253	201.084
5.8775	102.295	96.6308	201.074
5.88	102.299	96.6364	201.064
5.8825	102.304	96.6419	201.055
5.885	102.308	96.6475	201.045
5.8875	102.312	96.6531	201.035
5.89	102.316	96.6587	201.026
5.8925	102.32	96.6643	201.016
5.895	102.324	96.6699	201.006
5.8975	102.328	96.6755	200.997
5.9	102.332	96.6812	200.987
5.9025	102.336	96.6868	200.978
5.905	102.339	96.6924	200.968
5.9075	102.343	96.6981	200.959
5.91	102.347	96.7038	200.949
5.9125	102.351	96.7095	200.94
5.915	102.354	96.7151	200.93
5.9175	102.358	96.7208	200.921
5.92	102.362	96.7265	200.912
5.9225	102.365	96.7323	200.902
5.925	102.369	96.738	200.893
5.9275	102.372	96.7437	200.884
5.93	102.376	96.7495	200.875
5.9325	102.379	96.7552	200.865
5.935	102.383	96.761	200.856
5.9375	102.386	96.7667	200.847
5.94	102.389	96.7725	200.838
5.9425	102.393	96.7783	200.829
5.945	102.396	96.7841	200.82
5.9475	102.399	96.7899	200.811
5.95	102.403	96.7957	200.802
5.9525	102.406	96.8015	200.793
5.955	102.409	96.8074	200.784
5.9575	102.412	96.8132	200.775
5.96	102.415	96.819	200.766
5.9625	102.418	96.8249	200.757
5.965	102.421	96.8307	200.748
5.9675	102.424	96.8366	200.739
5.97	102.427	96.8425	200.73
5.9725	102.43	96.8484	200.722
5.975	102.433	96.8542	200.713
5.9775	102.436	96.8601	200.704
5.98	102.439	96.866	200.695
5.9825	102.441	96.8719	200.687
5.985	102.444	96.8779	200.678
5.9875	102.447	96.8838	200.669
5.99	102.449	96.8897	200.661
5.9925	102.452	96.8956	200.652
5.995	102.455	96.9016	200.644
5.9975	102.457	96.9075	200.635
6	102.46	96.9135	200.627
6.0025	102.462	96.9195	200.618
6.005	102.465	96.9254	200.61
6.0075	102.467	96.9314	200.601
6.01	102.47	96.9374	200.593
6.0125	102.472	96.9434	200.584
6.015	102.475	96.9494	200.576
6.0175	102.477	96.9554	200.568
6.02	102.479	96.9614	200.559
6.0225	102.481	96.9674	200.551
6.025	102.484	96.9734	200.543
6.0275	102.486	96.9794	200.535
6.03	102.488	96.9855	200.526
6.0325	102.49	96.9915	200.518
6.035	102.492	96.9975	200.51
6.0375	102.494	97.0036	200.502
6.04	102.496	97.0096	200.494
6.0425	102.498	97.0157	200.486
6.045	102.5	97.0218	200.478
6.0475	102.502	97.0278	200.47
6.05	102.504	97.0339	200.462
6.0525	102.506	97.04	200.454
6.055	102.508	97.0461	200.446
6.0575	102.51	97.0521	200.438
6.06	102.512	97.0582	200.43
6.0625	102.514	97.0643	200.422
6.065	102.515	97.0704	200.414
6.0675	102.517	97.0765	200.406
6.07	102.519	97.0827	200.399
6.0725	102.52	97.0888	200.391
6.075	102.522	97.0949	200.383
6.0775	102.524	97.101	200.375
6.08	102.525	97.1071	200.368
6.0825	102.527	97.1133	200.36
6.085	102.528	97.1194	200.352
6.0875	102.53	97.1256	200.345
6.09	102.531	97.1317	200.337
6.0925	102.533	97.1378	200.329
6.095	102.534	97.144	200.322
6.0975	102.535	97.1502	200.314
6.1	102.537	97.1563	200.307
6.1025	102.538	97.1625	200.299
6.105	102.539	97.1686	200.292
6.1075	102.541	97.1748	200.285
6.11	102.542	97.181	200.277
6.1125	102.543	97.1872	200.27
6.115	102.544	97.1933	200.262
6.1175	102.545	97.1995	200.255
6.12	102.547	97.2057	200.248
6.1225	102.548	97.2119	200.24
6.125	102.549	97.2181	200.233
6.1275	102.55	97.2243	200.226
6.13	102.551	97.2305	200.219
6.1325	102.552	97.2367	200.212
6.135	102.553	97.2429	200.204
6.1375	102.554	97.2491	200.197
6.14	102.555	97.2553	200.19
6.1425	102.555	97.2615	200.183
6.145	102.556	97.2677	200.176
6.1475	102.557	97.274	200.169
6.15	102.558	97.2802	200.162
6.1525	102.559	97.2864	200.155
6.155	102.559	97.2926	200.148
6.1575	102.56	97.2989	200.141
6.16	102.561	97.3051	200.134
6.1625	102.561	97.3113	200.127
6.165	102.562	97.3175	200.12
6.1675	102.563	97.3238	200.114
6.17	102.563	97.33	200.107
6.1725	102.564	97.3363	200.1
6.175	102.564	97.3425	200.093
6.1775	102.565	97.3487	200.086
6.18	102.565	97.355	200.08
6.1825	102.566	97.3612	200.073
6.185	102.566	97.3675	200.066
6.1875	102.567	97.3737	200.06
6.19	102.567	97.38	200.053
6.1925	102.567	97.3862	200.046
6.195	102.568	97.3925	200.04
6.1975	102.568	97.3987	200.033
6.2	102.568	97.405	200.027
6.2025	102.569	97.4112	200.02
6.205	102.569	97.4175	200.014
6.2075	102.569	97.4237	200.007
6.21	102.569	97.43	200.001
6.2125	102.569	97.4363	199.994
6.215	102.569	97.4425	199.988
6.2175	102.57	97.4488	199.982
6.22	102.57	97.455	199.975
6.2225	102.57	97.4613	199.969
6.225	102.57	97.4676	199.963
6.2275	102.57	97.4738	199.956
6.23	102.57	97.4801	199.95
6.2325	102.57	97.4863	199.944
6.235	102.57	97.4926	199.938
6.2375	102.57	97.4989	199.932
6.24	102.569	97.5051	199.925
6.2425	102.569	97.5114	199.919
6.245	102.569	97.5177	199.913
6.2475	102.569	97.5239	199.907
6.25	102.569	97.5302	199.901
6.2525	102.569	97.5365	199.895
6.255	102.568	97.5427	199.889
6.2575	102.568	97.549	199.883
6.26	102.568	97.5552	199.877
6.2625	102.567	97.5615	199.871
6.265	102.567	97.5678	199.865
6.2675	102.567	97.574	199.859
6.27	102.566	97.5803	199.853
6.2725	102.566	97.5865	199.848
6.275	102.566	97.5928	199.842
6.2775	102.565	97.5991	199.836
6.28	102.565	97.6053	199.83
6.2825	102.564	97.6116	199.824
6.285	102.564	97.6178	199.819
6.2875	102.563	97.6241	199.813
6.29	102.562	97.6303	199.807
6.2925	102.562	97.6366	199.802
6.295	102.561	97.6429	199.796
6.2975	102.561	97.6491	199.79
6.3	102.56	97.6554	199.785
6.3025	102.559	97.6616	199.779
6.305	102.559	97.6679	199.773
6.3075	102.558	97.6741	199.768
6.31	102.557	97.6803	199.762
6.3125	102.556	97.6866	199.757
6.315	102.556	97.6928	199.751
6.3175	102.555	97.6991	199.746
6.32	102.554	97.7053	199.741
6.3225	102.553	97.7116	199.735
6.325	102.552	97.7178	199.73
6.3275	102.552	97.724	199.724
6.33	102.551	97.7303	199.719
6.3325	102.55	97.7365	199.714
6.335	102.549	97.7427	199.709
6.3375	102.548	97.7489	199.703
6.34	102.547	97.7552	199.698
6.3425	102.546	97.7614	199.693
6.345	102.545	97.7676	199.688
6.3475	102.544	97.7738	199.682
6.35	102.543	97.78	199.677
6.3525	102.542	97.7863	199.672
6.355	102.541	97.7925	199.667
6.3575	102.539	97.7987	199.662
6.36	102.538	97.8049	199.657
6.3625	102.537	97.8111	199.652
6.365	102.536	97.8173	199.647
6.3675	102.535	97.8235	199.642
6.37	102.534	97.8297	199.637
6.3725	102.532	97.8359	199.632
6.375	102.531	97.8421	199.627
6.3775	102.53	97.8483	199.622
6.38	102.528	97.8545	199.617
6.3825	102.527	97.8606	199.612
6.385	102.526	97.8668	199.607
6.3875	102.524	97.873	199.603
6.39	102.523	97.8792	199.598
6.3925	102.522	97.8854	199.593
6.395	102.52	97.8915	199.588
6.3975	102.519	97.8977	199.583
6.4	102.517	97.9039	199.579
6.4025	102.516	97.91	199.574
6.405	102.515	97.9162	199.569
6.4075	102.513	97.9223	199.565
6.41	102.512	97.9285	199.56
6.4125	102.51	97.9346	199.555
6.415	102.508	97.9408	199.551
6.4175	102.507	97.9469	199.546
6.42	102.505	97.953	199.542
6.4225	102.504	97.9592	199.537
6.425	102.502	97.9653	199.533
6.4275	102.5	97.9714	199.528
6.43	102.499	97.9776	199.524
6.4325	102.497	97.9837	199.519
6.435	102.495	97.9898	199.515
6.4375	102.494	97.9959	199.51
6.44	102.492	98.002	199.506
6.4425	102.49	98.0081	199.502
6.445	102.489	98.0142	199.497
6.4475	102.487	98.0203	199.493
6.45	102.485	98.0264	199.489
6.4525	102.483	98.0325	199.484
6.455	102.481	98.0386	199.48
6.4575	102.48	98.0447	199.476
6.46	102.478	98.0507	199.472
6.4625	102.476	98.0568	199.467
6.465	102.474	98.0629	199.463
6.4675	102.472	98.0689	199.459
6.47	102.47	98.075	199.455
6.4725	102.468	98.081	199.451
6.475	102.466	98.0871	199.447
6.4775	102.464	98.0931	199.443
6.48	102.462	98.0992	199.439
6.4825	102.46	98.1052	199.435
6.485	102.458	98.1112	199.43
6.4875	102.456	98.1173	199.426
6.49	102.454	98.1233	199.423
6.4925	102.452	98.1293	199.419
6.495	102.45	98.1353	199.415
6.4975	102.448	98.1413	199.411
6.5	102.446	98.1473	199.407
6.5025	102.444	98.1533	199.403
6.505	102.442	98.1593	199.399
6.5075	102.439	98.1653	199.395
6.51	102.437	98.1713	199.391
6.5125	102.435	98.1773	199.388
6.515	102.433	98.1833	199.384
6.5175	102.431	98.1892	199.38
6.52	102.429	98.1952	199.376
6.5225	102.426	98.2012	199.373
6.525	102.424	98.2071	199.369
6.5275	102.422	98.2131	199.365
6.53	102.419	98.219	199.362
6.5325	102.417	98.2249	199.358
6.535	102.415	98.2309	199.354
6.5375	102.413	98.2368	199.351
6.54	102.41	98.2427	199.347
6.5425	102.408	98.2486	199.343
6.545	102.406	98.2545	199.34
6.5475	102.403	98.2605	199.336
6.55	102.401	98.2664	199.333
6.5525	102.398	98.2722	199.329
6.555	102.396	98.2781	199.326
6.5575	102.393	98.284	199.322
6.56	102.391	98.2899	199.319
6.5625	102.389	98.2958	199.316
6.565	102.386	98.3016	199.312
6.5675	102.384	98.3075	199.309
6.57	102.381	98.3134	199.306
6.5725	102.379	98.3192	199.302
6.575	102.376	98.325	199.299
6.5775	102.374	98.3309	199.296
6.58	102.371	98.3367	199.292
6.5825	102.368	98.3425	199.289
6.585	102.366	98.3484	199.286
6.5875	102.363	98.3542	199.283
6.59	102.361	98.36	199.279
6.5925	102.358	98.3658	199.276
6.595	102.355	98.3716	199.273
6.5975	102.353	98.3774	199.27
6.6	102.35	98.3832	199.267
6.6025	102.348	98.3889	199.264
6.605	102.345	98.3947	199.26
6.6075	102.342	98.4005	199.257
6.61	102.339	98.4062	199.254
6.6125	102.337	98.412	199.251
6.615	102.334	98.4177	199.248
6.6175	102.331	98.4235	199.245
6.62	102.329	98.4292	199.242
6.6225	102.326	98.4349	199.239
6.625	102.323	98.4406	199.236
6.6275	102.32	98.4464	199.233
6.63	102.317	98.4521	199.23
6.6325	102.315	98.4578	199.228
6.635	102.312	98.4635	199.225
6.6375	102.309	98.4692	199.222
6.64	102.306	98.4748	199.219
6.6425	102.303	98.4805	199.216
6.645	102.3	98.4862	199.213
6.6475	102.298	98.4918	199.211
6.65	102.295	98.4975	199.208
6.6525	102.292	98.5031	199.205
6.655	102.289	98.5088	199.202
6.6575	102.286	98.5144	199.2
6.66	102.283	98.52	199.197
6.6625	102.28	98.5257	199.194
6.665	102.277	98.5313	199.192
6.6675	102.274	98.5369	199.189
6.67	102.271	98.5425	199.186
6.6725	102.268	98.5481	199.184
6.675	102.265	98.5537	199.181
6.6775	102.262	98.5592	199.178
6.68	102.259	98.5648	199.176
6.6825	102.256	98.5704	199.173
6.685	102.253	98.5759	199.171
6.6875	102.25	98.5815	199.168
6.69	102.247	98.587	199.166
6.6925	102.244	98.5925	199.163
6.695	102.241	98.5981	199.161
6.6975	102.238	98.6036	199.158
6.7	102.235	98.6091	199.156
6.7025	102.232	98.6146	199.154
6.705	102.229	98.6201	199.151
6.7075	102.226	98.6256	199.149
6.71	102.223	98.6311	199.146
6.7125	102.219	98.6366	199.144
6.715	102.216	98.642	199.142
6.7175	102.213	98.6475	199.139
6.72	102.21	98.653	199.137
6.7225	102.207	98.6584	199.135
6.725	102.204	98.6638	199.133
6.7275	102.2	98.6693	199.13
6.73	102.197	98.6747	199.128
6.7325	102.194	98.6801	199.126
6.735	102.191	98.6855	199.124
6.7375	102.188	98.6909	199.121
6.74	102.184	98.6963	199.119
6.7425	102.181	98.7017	199.117
6.745	102.178	98.7071	199.115
6.7475	102.175	98.7124	199.113
6.75	102.171	98.7178	199.111
6.7525	102.168	98.7232	199.109
6.755	102.165	98.7285	199.107
6.7575	102.162	98.7339	199.105
6.76	102.158	98.7392	199.103
6.7625	102.155	98.7445	199.101
6.765	102.152	98.7498	199.099
6.7675	102.148	98.7551	199.097
6.77	102.145	98.7604	199.095
6.7725	102.142	98.7657	199.093
6.775	102.138	98.771	199.091
6.7775	102.135	98.7763	199.089
6.78	102.132	98.7816	199.087
6.7825	102.128	98.7868	199.085
6.785	102.125	98.7921	199.083
6.7875	102.122	98.7973	199.081
6.79	102.118	98.8025	199.079
6.7925	102.115	98.8078	199.077
6.795	102.111	98.813	199.076
6.7975	102.108	98.8182	199.074
6.8	102.105	98.8234	199.072
6.8025	102.101	98.8286	199.07
6.805	102.098	98.8338	199.069
6.8075	102.094	98.839	199.067
6.81	102.091	98.8441	199.065
6.8125	102.087	98.8493	199.063
6.815	102.084	98.8545	199.062
6.8175	102.08	98.8596	199.06
6.82	102.077	98.8647	199.058
6.8225	102.073	98.8699	199.057
6.825	102.07	98.875	199.055
6.8275	102.067	98.8801	199.053
6.83	102.063	98.8852	199.052
6.8325	102.06	98.8903	199.05
6.835	102.056	98.8954	199.049
6.8375	102.052	98.9005	199.047
6.84	102.049	98.9055	199.045
6.8425	102.045	98.9106	199.044
6.845	102.042	98.9157	199.042
6.8475	102.038	98.9207	199.041
6.85	102.035	98.9257	199.039
6.8525	102.031	98.9308	199.038
6.855	102.028	98.9358	199.036
6.8575	102.024	98.9408	199.035
6.86	102.021	98.9458	199.034
6.8625	102.017	98.9508	199.032
6.865	102.013	98.9558	199.031
6.8675	102.01	98.9608	199.029
6.87	102.006	98.9657	199.028
6.8725	102.003	98.9707	199.027
6.875	101.999	98.9756	199.025
6.8775	101.995	98.9806	199.024
6.88	101.992	98.9855	199.023
6.8825	101.988	98.9904	199.021
6.885	101.985	98.9953	199.02
6.8875	101.981	99.0003	199.019
6.89	101.977	99.0052	199.017
6.8925	101.974	99.01	199.016
6.895	101.97	99.0149	199.015
6.8975	101.966	99.0198	199.014
6.9	101.963	99.0247	199.013
6.9025	101.959	99.0295	199.011
6.905	101.955	99.0344	199.01
6.9075	101.952	99.0392	199.009
6.91	101.948	99.044	199.008
6.9125	101.944	99.0488	199.007
6.915	101.941	99.0537	199.006
6.9175	101.937	99.0585	199.004
6.92	101.933	99.0633	199.003
6.9225	101.93	99.068	199.002
6.925	101.926	99.0728	199.001
6.9275	101.922	99.0776	199
6.93	101.919	99.0823	198.999
6.9325	101.915	99.0871	198.998
6.935	101.911	99.0918	198.997
6.9375	101.907	99.0965	198.996
6.94	101.904	99.1013	198.995
6.9425	101.9	99.106	198.994
6.945	101.896	99.1107	198.993
6.9475	101.893	99.1154	198.992
6.95	101.889	99.1201	198.991
6.9525	101.885	99.1247	198.99
6.955	101.881	99.1294	198.989
6.9575	101.878	99.1341	198.988
6.96	101.874	99.1387	198.988
6.9625	101.87	99.1434	198.987
6.965	101.866	99.148	198.986
6.9675	101.862	99.1526	198.985
6.97	101.859	99.1572	198.984
6.9725	101.855	99.1618	198.983
6.975	101.851	99.1664	198.982
6.9775	101.847	99.171	198.982
6.98	101.844	99.1756	198.981
6.9825	101.84	99.1801	198.98
6.985	101.836	99.1847	198.979
6.9875	101.832	99.1892	198.979
6.99	101.828	99.1938	198.978
6.9925	101.825	99.1983	198.977
6.995	101.821	99.2028	198.976
6.9975	101.817	99.2073	198.976
7	101.813	99.2118	198.975
7.0025	101.809	99.2163	198.974
7.005	101.806	99.2208	198.974
7.0075	101.802	99.2253	198.973
7.01	101.798	99.2298	198.972
7.0125	101.794	99.2342	198.972
7.015	101.79	99.2387	198.971
7.0175	101.787	99.2431	198.97
7.02	101.783	99.2475	198.97
7.0225	101.779	99.2519	198.969
7.025	101.775	99.2564	198.969
7.0275	101.771	99.2608	198.968
7.03	101.767	99.2651	198.968
7.0325	101.764	99.2695	198.967
7.035	101.76	99.2739	198.966
7.0375	101.756	99.2783	198.966
7.04	101.752	99.2826	198.965
7.0425	101.748	99.287	198.965
7.045	101.744	99.2913	198.964
7.0475	101.74	99.2956	198.964
7.05	101.737	99.2999	198.964
7.0525	101.733	99.3042	198.963
7.055	101.729	99.3085	198.963
7.0575	101.725	99.3128	198.962
7.06	101.721	99.3171	198.962
7.0625	101.717	99.3214	198.961
7.065	101.713	99.3256	198.961
7.0675	101.71	99.3299	198.961
7.07	101.706	99.3341	198.96
7.0725	101.702	99.3384	198.96
7.075	101.698	99.3426	198.96
7.0775	101.694	99.3468	198.959
7.08	101.69	99.351	198.959
7.0825	101.686	99.3552	198.959
7.085	101.682	99.3594	198.958
7.0875	101.679	99.3635	198.958
7.09	101.675	99.3677	198.958
7.0925	101.671	99.3719	198.957
7.095	101.667	99.376	198.957
7.0975	101.663	99.3801	198.957
7.1	101.659	99.3843	198.957
7.1025	101.655	99.3884	198.956
7.105	101.651	99.3925	198.956
7.1075	101.647	99.3966	198.956
7.11	101.644	99.4007	198.956
7.1125	101.64	99.4048	198.956
7.115	101.636	99.4088	198.955
7.1175	101.632	99.4129	198.955
7.12	101.628	99.4169	198.955
7.1225	101.624	99.421	198.955
7.125	101.62	99.425	198.955
7.1275	101.616	99.429	198.955
7.13	101.612	99.4331	198.955
7.1325	101.608	99.4371	198.954
7.135	101.605	99.4411	198.954
7.1375	101.601	99.445	198.954
7.14	101.597	99.449	198.954
7.1425	101.593	99.453	198.954
7.145	101.589	99.4569	198.954
7.1475	101.585	99.4609	198.954
7.15	101.581	99.4648	198.954
7.1525	101.577	99.4687	198.954
7.155	101.573	99.4727	198.954
7.1575	101.569	99.4766	198.954
7.16	101.566	99.4805	198.954
7.1625	101.562	99.4844	198.954
7.165	101.558	99.4882	198.954
7.1675	101.554	99.4921	198.954
7.17	101.55	99.496	198.954
7.1725	101.546	99.4998	198.954
7.175	101.542	99.5037	198.954
7.1775	101.538	99.5075	198.954
7.18	101.534	99.5113	198.954
7.1825	101.53	99.5151	198.954
7.185	101.527	99.5189	198.955
7.1875	101.523	99.5227	198.955
7.19	101.519	99.5265	198.955
7.1925	101.515	99.5303	198.955
7.195	101.511	99.534	198.955
7.1975	101.507	99.5378	198.955
7.2	101.503	99.5415	198.955
7.2025	101.499	99.5453	198.955
7.205	101.495	99.549	198.956
7.2075	101.491	99.5527	198.956
7.21	101.488	99.5564	198.956
7.2125	101.484	99.5601	198.956
7.215	101.48	99.5638	198.956
7.2175	101.476	99.5675	198.957
7.22	101.472	99.5712	198.957
7.2225	101.468	99.5748	198.957
7.225	101.464	99.5785	198.957
7.2275	101.46	99.5821	198.958
7.23	101.456	99.5857	198.958
7.2325	101.452	99.5894	198.958
7.235	101.449	99.593	198.958
7.2375	101.445	99.5966	198.959
7.24	101.441	99.6002	198.959
7.2425	101.437	99.6037	198.959
7.245	101.433	99.6073	198.96
7.2475	101.429	99.6109	198.96
7.25	101.425	99.6144	198.96
7.2525	101.421	99.618	198.961
7.255	101.417	99.6215	198.961
7.2575	101.414	99.625	198.961
7.26	101.41	99.6286	198.962
7.2625	101.406	99.6321	198.962
7.265	101.402	99.6356	198.962
7.2675	101.398	99.6391	198.963
7.27	101.394	99.6425	198.963
7.2725	101.39	99.646	198.964
7.275	101.386	99.6495	198.964
7.2775	101.383	99.6529	198.964
7.28	101.379	99.6563	198.965
7.2825	101.375	99.6598	198.965
7.285	101.371	99.6632	198.966
7.2875	101.367	99.6666	198.966
7.29	101.363	99.67	198.967
7.2925	101.359	99.6734	198.967
7.295	101.356	99.6768	198.968
7.2975	101.352	99.6802	198.968
7.3	101.348	99.6835	198.969
7.3025	101.344	99.6869	198.969
7.305	101.34	99.6902	198.97
7.3075	101.336	99.6936	198.97
7.31	101.332	99.6969	198.971
7.3125	101.329	99.7002	198.971
7.315	101.325	99.7035	198.972
7.3175	101.321	99.7068	198.972
7.32	101.317	99.7101	198.973
7.3225	101.313	99.7134	198.973
7.325	101.309	99.7166	198.974
7.3275	101.306	99.7199	198.975
7.33	101.302	99.7231	198.975
7.3325	101.298	99.7264	198.976
7.335	101.294	99.7296	198.976
7.3375	101.29	99.7328	198.977
7.34	101.286	99.736	198.978
7.3425	101.283	99.7393	198.978
7.345	101.279	99.7424	198.979
7.3475	101.275	99.7456	198.979
7.35	101.271	99.7488	198.98
7.3525	101.267	99.752	198.981
7.355	101.263	99.7551	198.981
7.3575	101.26	99.7583	198.982
7.36	101.256	99.7614	198.983
7.3625	101.252	99.7645	198.983
7.365	101.248	99.7677	198.984
7.3675	101.244	99.7708	198.985
7.37	101.241	99.7739	198.986
7.3725	101.237	99.7769	198.986
7.375	101.233	99.78	198.987
7.3775	101.229	99.7831	198.988
7.38	101.225	99.7862	198.988
7.3825	101.222	99.7892	198.989
7.385	101.218	99.7923	198.99
7.3875	101.214	99.7953	198.991
7.39	101.21	99.7983	198.991
7.3925	101.207	99.8013	198.992
7.395	101.203	99.8043	198.993
7.3975	101.199	99.8073	198.994
7.4	101.195	99.8103	198.994
7.4025	101.191	99.8133	198.995
7.405	101.188	99.8163	198.996
7.4075	101.184	99.8192	198.997
7.41	101.18	99.8222	198.998
7.4125	101.176	99.8251	198.998
7.415	101.173	99.828	198.999
7.4175	101.169	99.831	199
7.42	101.165	99.8339	199.001
7.4225	101.161	99.8368	199.002
7.425	101.158	99.8397	199.003
7.4275	101.154	99.8426	199.003
7.43	101.15	99.8454	199.004
7.4325	101.147	99.8483	199.005
7.435	101.143	99.8512	199.006
7.4375	101.139	99.854	199.007
7.44	101.135	99.8569	199.008
7.4425	101.132	99.8597	199.009
7.445	101.128	99.8625	199.01
7.4475	101.124	99.8653	199.01
7.45	101.121	99.8681	199.011
7.4525	101.117	99.8709	199.012
7.455	101.113	99.8737	199.013
7.4575	101.109	99.8765	199.014
7.46	101.106	99.8792	199.015
7.4625	101.102	99.882	199.016
7.465	101.098	99.8847	199.017
7.4675	101.095	99.8875	199.018
7.47	101.091	99.8902	199.019
7.4725	101.087	99.8929	199.02
7.475	101.084	99.8956	199.021
7.4775	101.08	99.8983	199.022
7.48	101.076	99.901	199.023
7.4825	101.073	99.9037	199.024
7.485	101.069	99.9064	199.025
7.4875	101.065	99.9091	199.026
7.49	101.062	99.9117	199.027
7.4925	101.058	99.9144	199.028
7.495	101.054	99.917	199.029
7.4975	101.051	99.9196	199.03
7.5	101.047	99.9222	199.031
7.5025	101.044	99.9249	199.032
7.505	101.04	99.9275	199.033
7.5075	101.036	99.9301	199.034
7.51	101.033	99.9326	199.035
7.5125	101.029	99.9352	199.036
7.515	101.025	99.9378	199.037
7.5175	101.022	99.9403	199.038
7.52	101.018	99.9429	199.039
7.5225	101.015	99.9454	199.04
7.525	101.011	99.948	199.041
7.5275	101.007	99.9505	199.042
7.53	101.004	99.953	199.043
7.5325	101	99.9555	199.044
7.535	100.997	99.958	199.045
7.5375	100.993	99.9605	199.046
7.54	100.99	99.963	199.048
7.5425	100.986	99.9654	199.049
7.545	100.982	99.9679	199.05
7.5475	100.979	99.9703	199.051
7.55	100.975	99.9728	199.052
7.5525	100.972	99.9752	199.053
7.555	100.968	99.9776	199.054
7.5575	100.965	99.98	199.055
7.56	100.961	99.9825	199.056
7.5625	100.958	99.9849	199.058
7.565	100.954	99.9872	199.059
7.5675	100.95	99.9896	199.06
7.57	100.947	99.992	199.061
7.5725	100.943	99.9944	199.062
7.575	100.94	99.9967	199.063
7.5775	100.936	99.9991	199.065
7.58	100.933	100.001	199.066
7.5825	100.929	100.004	199.067
7.585	100.926	100.006	199.068
7.5875	100.922	100.008	199.069
7.59	100.919	100.011	199.07
7.5925	100.915	100.013	199.072
7.595	100.912	100.015	199.073
7.5975	100.908	100.018	199.074
7.6	100.905	100.02	199.075
7.6025	100.902	100.022	199.076
7.605	100.898	100.024	199.078
7.6075	100.895	100.027	199.079
7.61	100.891	100.029	199.08
7.6125	100.888	100.031	199.081
7.615	100.884	100.033	199.083
7.6175	100.881	100.035	199.084
7.62	100.877	100.038	199.085
7.6225	100.874	100.04	199.086
7.625	100.871	100.042	199.087
7.6275	100.867	100.044	199.089
7.63	100.864	100.046	199.09
7.6325	100.86	100.048	199.091
7.635	100.857	100.051	199.092
7.6375	100.854	100.053	199.094
7.64	100.85	100.055	199.095
7.6425	100.847	100.057	199.096
7.645	100.843	100.059	199.098
7.6475	100.84	100.061	199.099
7.65	100.837	100.063	199.1
7.6525	100.833	100.065	199.101
7.655	100.83	100.067	199.103
7.6575	100.826	100.07	199.104
7.66	100.823	100.072	199.105
7.6625	100.82	100.074	199.107
7.665	100.816	100.076	199.108
7.6675	100.813	100.078	199.109
7.67	100.81	100.08	199.11
7.6725	100.806	100.082	199.112
7.675	100.803	100.084	199.113
7.6775	100.8	100.086	199.114
7.68	100.796	100.088	199.116
7.6825	100.793	100.09	199.117
7.685	100.79	100.092	199.118
7.6875	100.786	100.094	199.12
7.69	100.783	100.096	199.121
7.6925	100.78	100.098	199.122
7.695	100.777	100.1	199.124
7.6975	100.773	100.102	199.125
7.7	100.77	100.104	199.126
7.7025	100.767	100.105	199.128
7.705	100.763	100.107	199.129
7.7075	100.76	100.109	199.131
7.71	100.757	100.111	199.132
7.7125	100.754	100.113	199.133
7.715	100.75	100.115	199.135
7.7175	100.747	100.117	199.136
7.72	100.744	100.119	199.137
7.7225	100.741	100.121	199.139
7.725	100.737	100.122	199.14
7.7275	100.734	100.124	199.142
7.73	100.731	100.126	199.143
7.7325	100.728	100.128	199.144
7.735	100.725	100.13	199.146
7.7375	100.721	100.132	199.147
7.74	100.718	100.133	199.148
7.7425	100.715	100.135	199.15
7.745	100.712	100.137	199.151
7.7475	100.709	100.139	199.153
7.75	100.705	100.14	199.154
7.7525	100.702	100.142	199.155
7.755	100.699	100.144	199.157
7.7575	100.696	100.146	199.158
7.76	100.693	100.147	199.16
7.7625	100.69	100.149	199.161
7.765	100.687	100.151	199.163
7.7675	100.683	100.153	199.164
7.77	100.68	100.154	199.165
7.7725	100.677	100.156	199.167
7.775	100.674	100.158	199.168
7.7775	100.671	100.159	199.17
7.78	100.668	100.161	199.171
7.7825	100.665	100.163	199.173
7.785	100.662	100.164	199.174
7.7875	100.658	100.166	199.175
7.79	100.655	100.168	199.177
7.7925	100.652	100.169	199.178
7.795	100.649	100.171	199.18
7.7975	100.646	100.173	199.181
7.8	100.643	100.174	199.183
7.8025	100.64	100.176	199.184
7.805	100.637	100.177	199.186
7.8075	100.634	100.179	199.187
7.81	100.631	100.181	199.189
7.8125	100.628	100.182	199.19
7.815	100.625	100.184	199.192
7.8175	100.622	100.185	199.193
7.82	100.619	100.187	199.194
7.8225	100.616	100.188	199.196
7.825	100.613	100.19	199.197
7.8275	100.61	100.191	199.199
7.83	100.607	100.193	199.2
7.8325	100.604	100.194	199.202
7.835	100.601	100.196	199.203
7.8375	100.598	100.197	199.205
7.84	100.595	100.199	199.206
7.8425	100.592	100.2	199.208
7.845	100.589	100.202	199.209
7.8475	100.586	100.203	199.211
7.85	100.583	100.205	199.212
7.8525	100.58	100.206	199.214
7.855	100.577	100.208	199.215
7.8575	100.574	100.209	199.217
7.86	100.571	100.211	199.218
7.8625	100.568	100.212	199.22
7.865	100.565	100.214	199.221
7.8675	100.562	100.215	199.223
7.87	100.559	100.216	199.224
7.8725	100.556	100.218	199.226
7.875	100.554	100.219	199.227
7.8775	100.551	100.221	199.229
7.88	100.548	100.222	199.23
7.8825	100.545	100.223	199.232
7.885	100.542	100.225	199.233
7.8875	100.539	100.226	199.235
7.89	100.536	100.227	199.236
7.8925	100.533	100.229	199.238
7.895	100.531	100.23	199.24
7.8975	100.528	100.231	199.241
7.9	100.525	100.233	199.243
7.9025	100.522	100.234	199.244
7.905	100.519	100.235	199.246
7.9075	100.516	100.237	199.247
7.91	100.513	100.238	199.249
7.9125	100.511	100.239	199.25
7.915	100.508	100.24	199.252
7.9175	100.505	100.242	199.253
7.92	100.502	100.243	199.255
7.9225	100.499	100.244	199.256
7.925	100.497	100.245	199.258
7.9275	100.494	100.247	199.259
7.93	100.491	100.248	199.261
7.9325	100.488	100.249	199.263
7.935	100.486	100.25	199.264
7.9375	100.483	100.252	199.266
7.94	100.48	100.253	199.267
7.9425	100.477	100.254	199.269
7.945	100.475	100.255	199.27
7.9475	100.472	100.256	199.272
7.95	100.469	100.258	199.273
7.9525	100.466	100.259	199.275
7.955	100.464	100.26	199.276
7.9575	100.461	100.261	199.278
7.96	100.458	100.262	199.28
7.9625	100.456	100.263	199.281
7.965	100.453	100.264	199.283
7.9675	100.45	100.266	199.284
7.97	100.447	100.267	199.286
7.9725	100.445	100.268	199.287
7.975	100.442	100.269	199.289
7.9775	100.439	100.27	199.291
7.98	100.437	100.271	199.292
7.9825	100.434	100.272	199.294
7.985	100.431	100.273	199.295
7.9875	100.429	100.274	199.297
7.99	100.426	100.275	199.298
7.9925	100.424	100.277	199.3
7.995	100.421	100.278	199.301
7.9975	100.418	100.279	199.303
8	100.416	100.28	199.305
8.0025	100.413	100.281	199.306
8.005	100.41	100.282	199.308
8.0075	100.408	100.283	199.309
8.01	100.405	100.284	199.311
8.0125	100.403	100.285	199.312
8.015	100.4	100.286	199.314
8.0175	100.398	100.287	199.316
8.02	100.395	100.288	199.317
8.0225	100.392	100.289	199.319
8.025	100.39	100.29	199.32
8.0275	100.387	100.291	199.322
8.03	100.385	100.292	199.323
8.0325	100.382	100.293	199.325
8.035	100.38	100.294	199.327
8.0375	100.377	100.295	199.328
8.04	100.375	100.296	199.33
8.0425	100.372	100.296	199.331
8.045	100.37	100.297	199.333
8.0475	100.367	100.298	199.334
8.05	100.365	100.299	199.336
8.0525	100.362	100.3	199.338
8.055	100.36	100.301	199.339
8.0575	100.357	100.302	199.341
8.06	100.355	100.303	199.342
8.0625	100.352	100.304	199.344
8.065	100.35	100.305	199.346
8.0675	100.347	100.306	199.347
8.07	100.345	100.306	199.349
8.0725	100.342	100.307	199.35
8.075	100.34	100.308	199.352
8.0775	100.338	100.309	199.353
8.08	100.335	100.31	199.355
8.0825	100.333	100.311	199.357
8.085	100.33	100.311	199.358
8.0875	100.328	100.312	199.36
8.09	100.326	100.313	199.361
8.0925	100.323	100.314	199.363
8.095	100.321	100.315	199.365
8.0975	100.318	100.316	199.366
8.1	100.316	100.316	199.368
8.1025	100.314	100.317	199.369
8.105	100.311	100.318	199.371
8.1075	100.309	100.319	199.372
8.11	100.307	100.319	199.374
8.1125	100.304	100.32	199.376
8.115	100.302	100.321	199.377
8.1175	100.3	100.322	199.379
8.12	100.297	100.322	199.38
8.1225	100.295	100.323	199.382
8.125	100.293	100.324	199.383
8.1275	100.29	100.325	199.385
8.13	100.288	100.325	199.387
8.1325	100.286	100.326	199.388
8.135	100.283	100.327	199.39
8.1375	100.281	100.328	199.391
8.14	100.279	100.328	199.393
8.1425	100.277	100.329	199.395
8.145	100.274	100.33	199.396
8.1475	100.272	100.33	199.398
8.15	100.27	100.331	199.399
8.1525	100.267	100.332	199.401
8.155	100.265	100.332	199.402
8.1575	100.263	100.333	199.404
8.16	100.261	100.334	199.406
8.1625	100.259	100.334	199.407
8.165	100.256	100.335	199.409
8.1675	100.254	100.336	199.41
8.17	100.252	100.336	199.412
8.1725	100.25	100.337	199.413
8.175	100.247	100.337	199.415
8.1775	100.245	100.338	199.417
8.18	100.243	100.339	199.418
8.1825	100.241	100.339	199.42
8.185	100.239	100.34	199.421
8.1875	100.237	100.341	199.423
8.19	100.234	100.341	199.424
8.1925	100.232	100.342	199.426
8.195	100.23	100.342	199.428
8.1975	100.228	100.343	199.429
8.2	100.226	100.343	199.431
8.2025	100.224	100.344	199.432
8.205	100.222	100.345	199.434
8.2075	100.219	100.345	199.435
8.21	100.217	100.346	199.437
8.2125	100.215	100.346	199.439
8.215	100.213	100.347	199.44
8.2175	100.211	100.347	199.442
8.22	100.209	100.348	199.443
8.2225	100.207	100.348	199.445
8.225	100.205	100.349	199.446
8.2275	100.203	100.349	199.448
8.23	100.201	100.35	199.45
8.2325	100.199	100.35	199.451
8.235	100.196	100.351	199.453
8.2375	100.194	100.351	199.454
8.24	100.192	100.352	199.456
8.2425	100.19	100.352	199.457
8.245	100.188	100.353	199.459
8.2475	100.186	100.353	199.46
8.25	100.184	100.354	199.462
8.2525	100.182	100.354	199.464
8.255	100.18	100.355	199.465
8.2575	100.178	100.355	199.467
8.26	100.176	100.355	199.468
8.2625	100.174	100.356	199.47
8.265	100.172	100.356	199.471
8.2675	100.17	100.357	199.473
8.27	100.168	100.357	199.474
8.2725	100.166	100.358	199.476
8.275	100.164	100.358	199.478
8.2775	100.162	100.358	199.479
8.28	100.16	100.359	199.481
8.2825	100.159	100.359	199.482
8.285	100.157	100.36	199.484
8.2875	100.155	100.36	199.485
8.29	100.153	100.36	199.487
8.2925	100.151	100.361	199.488
8.295	100.149	100.361	199.49
8.2975	100.147	100.362	199.491
8.3	100.145	100.362	199.493
8.3025	100.143	100.362	199.495
8.305	100.141	100.363	199.496
8.3075	100.139	100.363	199.498
8.31	100.137	100.363	199.499
8.3125	100.136	100.364	199.501
8.315	100.134	100.364	199.502
8.3175	100.132	100.364	199.504
8.32	100.13	100.365	199.505
8.3225	100.128	100.365	199.507
8.325	100.126	100.365	199.508
8.3275	100.124	100.366	199.51
8.33	100.123	100.366	199.511
8.3325	100.121	100.366	199.513
8.335	100.119	100.367	199.514
8.3375	100.117	100.367	199.516
8.34	100.115	100.367	199.517
8.3425	100.114	100.367	199.519
8.345	100.112	100.368	199.521
8.3475	100.11	100.368	199.522
8.35	100.108	100.368	199.524
8.3525	100.106	100.369	199.525
8.355	100.105	100.369	199.527
8.3575	100.103	100.369	199.528
8.36	100.101	100.369	199.53
8.3625	100.099	100.37	199.531
8.365	100.098	100.37	199.533
8.3675	100.096	100.37	199.534
8.37	100.094	100.37	199.536
8.3725	100.092	100.371	199.537
8.375	100.091	100.371	199.539
8.3775	100.089	100.371	199.54
8.38	100.087	100.371	199.542
8.3825	100.085	100.371	199.543
8.385	100.084	100.372	199.545
8.3875	100.082	100.372	199.546
8.39	100.08	100.372	199.548
8.3925	100.079	100.372	199.549
8.395	100.077	100.372	199.551
8.3975	100.075	100.373	199.552
8.4	100.074	100.373	199.554
8.4025	100.072	100.373	199.555
8.405	100.07	100.373	199.557
8.4075	100.069	100.373	199.558
8.41	100.067	100.374	199.56
8.4125	100.065	100.374	199.561
8.415	100.064	100.374	199.563
8.4175	100.062	100.374	199.564
8.42	100.06	100.374	199.566
8.4225	100.059	100.374	199.567
8.425	100.057	100.374	199.568
8.4275	100.055	100.375	199.57
8.43	100.054	100.375	199.571
8.4325	100.052	100.375	199.573
8.435	100.051	100.375	199.574
8.4375	100.049	100.375	199.576
8.44	100.047	100.375	199.577
8.4425	100.046	100.375	199.579
8.445	100.044	100.375	199.58
8.4475	100.043	100.376	199.582
8.45	100.041	100.376	199.583
8.4525	100.04	100.376	199.585
8.455	100.038	100.376	199.586
8.4575	100.036	100.376	199.588
8.46	100.035	100.376	199.589
8.4625	100.033	100.376	199.59
8.465	100.032	100.376	199.592
8.4675	100.03	100.376	199.593
8.47	100.029	100.376	199.595
8.4725	100.027	100.376	199.596
8.475	100.026	100.377	199.598
8.4775	100.024	100.377	199.599
8.48	100.023	100.377	199.601
8.4825	100.021	100.377	199.602
8.485	100.02	100.377	199.603
8.4875	100.018	100.377	199.605
8.49	100.017	100.377	199.606
8.4925	100.015	100.377	199.608
8.495	100.014	100.377	199.609
8.4975	100.012	100.377	199.611
8.5	100.011	100.377	199.612
8.5025	100.01	100.377	199.613
8.505	100.008	100.377	199.615
8.5075	100.007	100.377	199.616
8.51	100.005	100.377	199.618
8.5125	100.004	100.377	199.619
8.515	100.002	100.377	199.621
8.5175	100.001	100.377	199.622
8.52	99.9995	100.377	199.623
8.5225	99.9981	100.377	199.625
8.525	99.9967	100.377	199.626
8.5275	99.9953	100.377	199.628
8.53	99.9939	100.377	199.629
8.5325	99.9925	100.377	199.63
8.535	99.9911	100.377	199.632
8.5375	99.9897	100.377	199.633
8.54	99.9884	100.377	199.635
8.5425	99.987	100.377	199.636
8.545	99.9856	100.377	199.637
8.5475	99.9843	100.377	199.639
8.55	99.9829	100.377	199.64
8.5525	99.9816	100.377	199.642
8.555	99.9802	100.377	199.643
8.5575	99.9789	100.377	199.644
8.56	99.9776	100.377	199.646
8.5625	99.9763	100.377	199.647
8.565	99.9749	100.377	199.649
8.5675	99.9736	100.376	199.65
8.57	99.9723	100.376	199.651
8.5725	99.971	100.376	199.653
8.575	99.9697	100.376	199.654
8.5775	99.9684	100.376	199.655
8.58	99.9671	100.376	199.657
8.5825	99.9658	100.376	199.658
8.585	99.9646	100.376	199.66
8.5875	99.9633	100.376	199.661
8.59	99.962	100.376	199.662
8.5925	99.9607	100.376	199.664
8.595	99.9595	100.376	199.665
8.5975	99.9582	100.375	199.666
8.6	99.957	100.375	199.668
8.6025	99.9557	100.375	199.669
8.605	99.9545	100.375	199.67
8.6075	99.9533	100.375	199.672
8.61	99.952	100.375	199.673
8.6125	99.9508	100.375	199.674
8.615	99.9496	100.375	199.676
8.6175	99.9484	100.374	199.677
8.62	99.9472	100.374	199.678
8.6225	99.946	100.374	199.68
8.625	99.9448	100.374	199.681
8.6275	99.9436	100.374	199.682
8.63	99.9424	100.374	199.684
8.6325	99.9412	100.374	199.685
8.635	99.94	100.374	199.686
8.6375	99.9389	100.373	199.688
8.64	99.9377	100.373	199.689
8.6425	99.9365	100.373	199.69
8.645	99.9354	100.373	199.692
8.6475	99.9342	100.373	199.693
8.65	99.9331	100.373	199.694
8.6525	99.9319	100.372	199.696
8.655	99.9308	100.372	199.697
8.6575	99.9297	100.372	199.698
8.66	99.9285	100.372	199.7
8.6625	99.9274	100.372	199.701
8.665	99.9263	100.371	199.702
8.6675	99.9252	100.371	199.704
8.67	99.9241	100.371	199.705
8.6725	99.923	100.371	199.706
8.675	99.9219	100.371	199.707
8.6775	99.9208	100.371	199.709
8.68	99.9197	100.37	199.71
8.6825	99.9186	100.37	199.711
8.685	99.9175	100.37	199.713
8.6875	99.9164	100.37	199.714
8.69	99.9154	100.37	199.715
8.6925	99.9143	100.369	199.716
8.695	99.9133	100.369	199.718
8.6975	99.9122	100.369	199.719
8.7	99.9111	100.369	199.72
8.7025	99.9101	100.368	199.721
8.705	99.9091	100.368	199.723
8.7075	99.908	100.368	199.724
8.71	99.907	100.368	199.725
8.7125	99.906	100.367	199.727
8.715	99.9049	100.367	199.728
8.7175	99.9039	100.367	199.729
8.72	99.9029	100.367	199.73
8.7225	99.9019	100.367	199.732
8.725	99.9009	100.366	199.733
8.7275	99.8999	100.366	199.734
8.73	99.8989	100.366	199.735
8.7325	99.8979	100.366	199.737
8.735	99.8969	100.365	199.738
8.7375	99.896	100.365	199.739
8.74	99.895	100.365	199.74
8.7425	99.894	100.364	199.742
8.745	99.893	100.364	199.743
8.7475	99.8921	100.364	199.744
8.75	99.8911	100.364	199.745
8.7525	99.8902	100.363	199.746
8.755	99.8892	100.363	199.748
8.7575	99.8883	100.363	199.749
8.76	99.8873	100.363	199.75
8.7625	99.8864	100.362	199.751
8.765	99.8855	100.362	199.753
8.7675	99.8846	100.362	199.754
8.77	99.8836	100.361	199.755
8.7725	99.8827	100.361	199.756
8.775	99.8818	100.361	199.757
8.7775	99.8809	100.361	199.759
8.78	99.88	100.36	199.76
8.7825	99.8791	100.36	199.761
8.785	99.8782	100.36	199.762
8.7875	99.8773	100.359	199.763
8.79	99.8764	100.359	199.765
8.7925	99.8756	100.359	199.766
8.795	99.8747	100.358	199.767
8.7975	99.8738	100.358	199.768
8.8	99.8729	100.358	199.769
8.8025	99.8721	100.357	199.77
8.805	99.8712	100.357	199.772
8.8075	99.8704	100.357	199.773
8.81	99.8695	100.356	199.774
8.8125	99.8687	100.356	199.775
8.815	99.8678	100.356	199.776
8.8175	99.867	100.355	199.778
8.82	99.8662	100.355	199.779
8.8225	99.8653	100.355	199.78
8.825	99.8645	100.354	199.781
8.8275	99.8637	100.354	199.782
8.83	99.8629	100.354	199.783
8.8325	99.8621	100.353	199.784
8.835	99.8613	100.353	199.786
8.8375	99.8605	100.353	199.787
8.84	99.8597	100.352	199.788
8.8425	99.8589	100.352	199.789
8.845	99.8581	100.352	199.79
8.8475	99.8573	100.351	199.791
8.85	99.8565	100.351	199.793
8.8525	99.8558	100.351	199.794
8.855	99.855	100.35	199.795
8.8575	99.8542	100.35	199.796
8.86	99.8535	100.349	199.797
8.8625	99.8527	100.349	199.798
8.865	99.852	100.349	199.799
8.8675	99.8512	100.348	199.8
8.87	99.8505	100.348	199.802
8.8725	99.8497	100.348	199.803
8.875	99.849	100.347	199.804
8.8775	99.8483	100.347	199.805
8.88	99.8475	100.346	199.806
8.8825	99.8468	100.346	199.807
8.885	99.8461	100.346	199.808
8.8875	99.8454	100.345	199.809
8.89	99.8447	100.345	199.81
8.8925	99.8439	100.345	199.811
8.895	99.8432	100.344	199.813
8.8975	99.8425	100.344	199.814
8.9	99.8418	100.343	199.815
8.9025	99.8412	100.343	199.816
8.905	99.8405	100.343	199.817
8.9075	99.8398	100.342	199.818
8.91	99.8391	100.342	199.819
8.9125	99.8384	100.341	199.82
8.915	99.8378	100.341	199.821
8.9175	99.8371	100.341	199.822
8.92	99.8364	100.34	199.823
8.9225	99.8358	100.34	199.824
8.925	99.8351	100.339	199.826
8.9275	99.8345	100.339	199.827
8.93	99.8338	100.338	199.828
8.9325	99.8332	100.338	199.829
8.935	99.8325	100.338	199.83
8.9375	99.8319	100.337	199.831
8.94	99.8313	100.337	199.832
8.9425	99.8306	100.336	199.833
8.945	99.83	100.336	199.834
8.9475	99.8294	100.336	199.835
8.95	99.8288	100.335	199.836
8.9525	99.8282	100.335	199.837
8.955	99.8276	100.334	199.838
8.9575	99.827	100.334	199.839
8.96	99.8264	100.333	199.84
8.9625	99.8258	100.333	199.841
8.965	99.8252	100.333	199.842
8.9675	99.8246	100.332	199.843
8.97	99.824	100.332	199.844
8.9725	99.8234	100.331	199.845
8.975	99.8229	100.331	199.846
8.9775	99.8223	100.33	199.847
8.98	99.8217	100.33	199.848
8.9825	99.8211	100.329	199.849
8.985	99.8206	100.329	199.85
8.9875	99.82	100.328	199.851
8.99	99.8195	100.328	199.852
8.9925	99.8189	100.328	199.853
8.995	99.8184	100.327	199.854
8.9975	99.8178	100.327	199.855
9	99.8173	100.326	199.856
9.0025	99.8168	100.326	199.857
9.005	99.8162	100.325	199.858
9.0075	99.8157	100.325	199.859
9.01	99.8152	100.324	199.86
9.0125	99.8147	100.324	199.861
9.015	99.8141	100.323	199.862
9.0175	99.8136	100.323	199.863
9.02	99.8131	100.323	199.864
9.0225	99.8126	100.322	199.865
9.025	99.8121	100.322	199.866
9.0275	99.8116	100.321	199.867
9.03	99.8111	100.321	199.868
9.0325	99.8106	100.32	199.869
9.035	99.8101	100.32	199.87
9.0375	99.8097	100.319	199.871
9.04	99.8092	100.319	199.872
9.0425	99.8087	100.318	199.873
9.045	99.8082	100.318	199.874
9.0475	99.8078	100.317	199.875
9.05	99.8073	100.317	199.876
9.0525	99.8068	100.316	199.877
9.055	99.8064	100.316	199.878
9.0575	99.8059	100.315	199.879
9.06	99.8055	100.315	199.88
9.0625	99.805	100.314	199.881
9.065	99.8046	100.314	199.882
9.0675	99.8041	100.313	199.882
9.07	99.8037	100.313	199.883
9.0725	99.8033	100.312	199.884
9.075	99.8028	100.312	199.885
9.0775	99.8024	100.311	199.886
9.08	99.802	100.311	199.887
9.0825	99.8016	100.31	199.888
9.085	99.8011	100.31	199.889
9.0875	99.8007	100.309	199.89
9.09	99.8003	100.309	199.891
9.0925	99.7999	100.308	199.892
9.095	99.7995	100.308	199.893
9.0975	99.7991	100.307	199.893
9.1	99.7987	100.307	199.894
9.1025	99.7983	100.306	199.895
9.105	99.7979	100.306	199.896
9.1075	99.7976	100.305	199.897
9.11	99.7972	100.305	199.898
9.1125	99.7968	100.304	199.899
9.115	99.7964	100.304	199.9
9.1175	99.796	100.303	199.901
9.12	99.7957	100.303	199.901
9.1225	99.7953	100.302	199.902
9.125	99.7949	100.302	199.903
9.1275	99.7946	100.301	199.904
9.13	99.7942	100.301	199.905
9.1325	99.7939	100.3	199.906
9.135	99.7935	100.3	199.907
9.1375	99.7932	100.299	199.908
9.14	99.7928	100.299	199.908
9.1425	99.7925	100.298	199.909
9.145	99.7922	100.298	199.91
9.1475	99.7918	100.297	199.911
9.15	99.7915	100.297	199.912
9.1525	99.7912	100.296	199.913
9.155	99.7908	100.296	199.914
9.1575	99.7905	100.295	199.914
9.16	99.7902	100.295	199.915
9.1625	99.7899	100.294	199.916
9.165	99.7896	100.293	199.917
9.1675	99.7893	100.293	199.918
9.17	99.789	100.292	199.919
9.1725	99.7887	100.292	199.919
9.175	99.7884	100.291	199.92
9.1775	99.7881	100.291	199.921
9.18	99.7878	100.29	199.922
9.1825	99.7875	100.29	199.923
9.185	99.7872	100.289	199.924
9.1875	99.7869	100.289	199.924
9.19	99.7866	100.288	199.925
9.1925	99.7864	100.288	199.926
9.195	99.7861	100.287	199.927
9.1975	99.7858	100.287	199.928
9.2	99.7855	100.286	199.928
9.2025	99.7853	100.285	199.929
9.205	99.785	100.285	199.93
9.2075	99.7848	100.284	199.931
9.21	99.7845	100.284	199.932
9.2125	99.7842	100.283	199.932
9.215	99.784	100.283	199.933
9.2175	99.7837	100.282	199.934
9.22	99.7835	100.282	199.935
9.2225	99.7833	100.281	199.936
9.225	99.783	100.281	199.936
9.2275	99.7828	100.28	199.937
9.23	99.7826	100.28	199.938
9.2325	99.7823	100.279	199.939
9.235	99.7821	100.278	199.939
9.2375	99.7819	100.278	199.94
9.24	99.7816	100.277	199.941
9.2425	99.7814	100.277	199.942
9.245	99.7812	100.276	199.943
9.2475	99.781	100.276	199.943
9.25	99.7808	100.275	199.944
9.2525	99.7806	100.275	199.945
9.255	99.7804	100.274	199.946
9.2575	99.7802	100.273	199.946
9.26	99.78	100.273	199.947
9.2625	99.7798	100.272	199.948
9.265	99.7796	100.272	199.949
9.2675	99.7794	100.271	199.949
9.27	99.7792	100.271	199.95
9.2725	99.779	100.27	199.951
9.275	99.7789	100.27	199.952
9.2775	99.7787	100.269	199.952
9.28	99.7785	100.269	199.953
9.2825	99.7783	100.268	199.954
9.285	99.7782	100.267	199.954
9.2875	99.778	100.267	199.955
9.29	99.7778	100.266	199.956
9.2925	99.7777	100.266	199.957
9.295	99.7775	100.265	199.957
9.2975	99.7773	100.265	199.958
9.3	99.7772	100.264	199.959
9.3025	99.777	100.264	199.959
9.305	99.7769	100.263	199.96
9.3075	99.7767	100.262	199.961
9.31	99.7766	100.262	199.962
9.3125	99.7765	100.261	199.962
9.315	99.7763	100.261	199.963
9.3175	99.7762	100.26	199.964
9.32	99.776	100.26	199.964
9.3225	99.7759	100.259	199.965
9.325	99.7758	100.258	199.966
9.3275	99.7757	100.258	199.966
9.33	99.7755	100.257	199.967
9.3325	99.7754	100.257	199.968
9.335	99.7753	100.256	199.968
9.3375	99.7752	100.256	199.969
9.34	99.7751	100.255	199.97
9.3425	99.775	100.255	199.971
9.345	99.7749	100.254	199.971
9.3475	99.7747	100.253	199.972
9.35	99.7746	100.253	199.973
9.3525	99.7745	100.252	199.973
9.355	99.7744	100.252	199.974
9.3575	99.7743	100.251	199.975
9.36	99.7743	100.251	199.975
9.3625	99.7742	100.25	199.976
9.365	99.7741	100.249	199.976
9.3675	99.774	100.249	199.977
9.37	99.7739	100.248	199.978
9.3725	99.7738	100.248	199.978
9.375	99.7737	100.247	199.979
9.3775	99.7737	100.247	199.98
9.38	99.7736	100.246	199.98
9.3825	99.7735	100.245	199.981
9.385	99.7735	100.245	199.982
9.3875	99.7734	100.244	199.982
9.39	99.7733	100.244	199.983
9.3925	99.7733	100.243	199.984
9.395	99.7732	100.243	199.984
9.3975	99.7732	100.242	199.985
9.4	99.7731	100.241	199.985
9.4025	99.773	100.241	199.986
9.405	99.773	100.24	199.987
9.4075	99.7729	100.24	199.987
9.41	99.7729	100.239	199.988
9.4125	99.7729	100.239	199.988
9.415	99.7728	100.238	199.989
9.4175	99.7728	100.238	199.99
9.42	99.7727	100.237	199.99
9.4225	99.7727	100.236	199.991
9.425	99.7727	100.236	199.992
9.4275	99.7727	100.235	199.992
9.43	99.7726	100.235	199.993
9.4325	99.7726	100.234	199.993
9.435	99.7726	100.234	199.994
9.4375	99.7726	100.233	199.994
9.44	99.7725	100.232	199.995
9.4425	99.7725	100.232	199.996
9.445	99.7725	100.231	199.996
9.4475	99.7725	100.231	199.997
9.45	99.7725	100.23	199.997
9.4525	99.7725	100.23	199.998
9.455	99.7725	100.229	199.999
9.4575	99.7725	100.228	199.999
9.46	99.7725	100.228	200
9.4625	99.7725	100.227	200
9.465	99.7725	100.227	200.001
9.4675	99.7725	100.226	200.001
9.47	99.7725	100.226	200.002
9.4725	99.7725	100.225	200.003
9.475	99.7725	100.224	200.003
9.4775	99.7725	100.224	200.004
9.48	99.7725	100.223	200.004
9.4825	99.7726	100.223	200.005
9.485	99.7726	100.222	200.005
9.4875	99.7726	100.222	200.006
9.49	99.7726	100.221	200.006
9.4925	99.7727	100.22	200.007
9.495	99.7727	100.22	200.007
9.4975	99.7727	100.219	200.008
9.5	99.7727	100.219	200.009
9.5025	99.7728	100.218	200.009
9.505	99.7728	100.218	200.01
9.5075	99.7729	100.217	200.01
9.51	99.7729	100.216	200.011
9.5125	99.7729	100.216	200.011
9.515	99.773	100.215	200.012
9.5175	99.773	100.215	200.012
9.52	99.7731	100.214	200.013
9.5225	99.7731	100.214	200.013
9.525	99.7732	100.213	200.014
9.5275	99.7732	100.212	200.014
9.53	99.7733	100.212	200.015
9.5325	99.7733	100.211	200.015
9.535	99.7734	100.211	200.016
9.5375	99.7735	100.21	200.016
9.54	99.7735	100.21	200.017
9.5425	99.7736	100.209	200.017
9.545	99.7737	100.208	200.018
9.5475	99.7737	100.208	200.018
9.55	99.7738	100.207	200.019
9.5525	99.7739	100.207	200.019
9.555	99.7739	100.206	200.02
9.5575	99.774	100.206	200.02
9.56	99.7741	100.205	200.021
9.5625	99.7742	100.205	200.021
9.565	99.7743	100.204	200.022
9.5675	99.7743	100.203	200.022
9.57	99.7744	100.203	200.023
9.5725	99.7745	100.202	200.023
9.575	99.7746	100.202	200.024
9.5775	99.7747	100.201	200.024
9.58	99.7748	100.201	200.025
9.5825	99.7749	100.2	200.025
9.585	99.775	100.199	200.026
9.5875	99.7751	100.199	200.026
9.59	99.7752	100.198	200.027
9.5925	99.7753	100.198	200.027
9.595	99.7754	100.197	200.027
9.5975	99.7755	100.197	200.028
9.6	99.7756	100.196	200.028
9.6025	99.7757	100.195	200.029
9.605	99.7758	100.195	200.029
9.6075	99.7759	100.194	200.03
9.61	99.776	100.194	200.03
9.6125	99.7762	100.193	200.031
9.615	99.7763	100.193	200.031
9.6175	99.7764	100.192	200.031
9.62	99.7765	100.192	200.032
9.6225	99.7766	100.191	200.032
9.625	99.7768	100.19	200.033
9.6275	99.7769	100.19	200.033
9.63	99.777	100.189	200.034
9.6325	99.7771	100.189	200.034
9.635	99.7773	100.188	200.035
9.6375	99.7774	100.188	200.035
9.64	99.7775	100.187	200.035
9.6425	99.7777	100.187	200.036
9.645	99.7778	100.186	200.036
9.6475	99.7779	100.185	200.037
9.65	99.7781	100.185	200.037
9.6525	99.7782	100.184	200.037
9.655	99.7784	100.184	200.038
9.6575	99.7785	100.183	200.038
9.66	99.7787	100.183	200.039
9.6625	99.7788	100.182	200.039
9.665	99.7789	100.182	200.04
9.6675	99.7791	100.181	200.04
9.67	99.7792	100.18	200.04
9.6725	99.7794	100.18	200.041
9.675	99.7796	100.179	200.041
9.6775	99.7797	100.179	200.042
9.68	99.7799	100.178	200.042
9.6825	99.78	100.178	200.042
9.685	99.7802	100.177	200.043
9.6875	99.7803	100.177	200.043
9.69	99.7805	100.176	200.043
9.6925	99.7807	100.175	200.044
9.695	99.7808	100.175	200.044
9.6975	99.781	100.174	200.045
9.7	99.7812	100.174	200.045
9.7025	99.7814	100.173	200.045
9.705	99.7815	100.173	200.046
9.7075	99.7817	100.172	200.046
9.71	99.7819	100.172	200.046
9.7125	99.782	100.171	200.047
9.715	99.7822	100.171	200.047
9.7175	99.7824	100.17	200.048
9.72	99.7826	100.169	200.048
9.7225	99.7828	100.169	200.048
9.725	99.7829	100.168	200.049
9.7275	99.7831	100.168	200.049
9.73	99.7833	100.167	200.049
9.7325	99.7835	100.167	200.05
9.735	99.7837	100.166	200.05
9.7375	99.7839	100.166	200.05
9.74	99.7841	100.165	200.051
9.7425	99.7843	100.165	200.051
9.745	99.7845	100.164	200.052
9.7475	99.7847	100.163	200.052
9.75	99.7848	100.163	200.052
9.7525	99.785	100.162	200.053
9.755	99.7852	100.162	200.053
9.7575	99.7854	100.161	200.053
9.76	99.7856	100.161	200.054
9.7625	99.7858	100.16	200.054
9.765	99.7861	100.16	200.054
9.7675	99.7863	100.159	200.055
9.77	99.7865	100.159	200.055
9.7725	99.7867	100.158	200.055
9.775	99.7869	100.158	200.056
9.7775	99.7871	100.157	200.056
9.78	99.7873	100.157	200.056
9.7825	99.7875	100.156	200.057
9.785	99.7877	100.155	200.057
9.7875	99.7879	100.155	200.057
9.79	99.7882	100.154	200.057
9.7925	99.7884	100.154	200.058
9.795	99.7886	100.153	200.058
9.7975	99.7888	100.153	200.058
9.8	99.789	100.152	200.059
9.8025	99.7892	100.152	200.059
9.805	99.7895	100.151	200.059
9.8075	99.7897	100.151	200.06
9.81	99.7899	100.15	200.06
9.8125	99.7901	100.15	200.06
9.815	99.7904	100.149	200.061
9.8175	99.7906	100.149	200.061
9.82	99.7908	100.148	200.061
9.8225	99.7911	100.148	200.061
9.825	99.7913	100.147	200.062
9.8275	99.7915	100.147	200.062
9.83	99.7918	100.146	200.062
9.8325	99.792	100.145	200.063
9.835	99.7922	100.145	200.063
9.8375	99.7925	100.144	200.063
9.84	99.7927	100.144	200.063
9.8425	99.7929	100.143	200.064
9.845	99.7932	100.143	200.064
9.8475	99.7934	100.142	200.064
9.85	99.7937	100.142	200.065
9.8525	99.7939	100.141	200.065
9.855	99.7942	100.141	200.065
9.8575	99.7944	100.14	200.065
9.86	99.7946	100.14	200.066
9.8625	99.7949	100.139	200.066
9.865	99.7951	100.139	200.066
9.8675	99.7954	100.138	200.066
9.87	99.7956	100.138	200.067
9.8725	99.7959	100.137	200.067
9.875	99.7961	100.137	200.067
9.8775	99.7964	100.136	200.067
9.88	99.7967	100.136	200.068
9.8825	99.7969	100.135	200.068
9.885	99.7972	100.135	200.068
9.8875	99.7974	100.134	200.068
9.89	99.7977	100.134	200.069
9.8925	99.7979	100.133	200.069
9.895	99.7982	100.133	200.069
9.8975	99.7985	100.132	200.069
9.9	99.7987	100.132	200.07
9.9025	99.799	100.131	200.07
9.905	99.7992	100.131	200.07
9.9075	99.7995	100.13	200.07
9.91	99.7998	100.13	200.071
9.9125	99.8	100.129	200.071
9.915	99.8003	100.129	200.071
9.9175	99.8006	100.128	200.071
9.92	99.8008	100.128	200.072
9.9225	99.8011	100.127	200.072
9.925	99.8014	100.127	200.072
9.9275	99.8017	100.126	200.072
9.93	99.8019	100.126	200.072
9.9325	99.8022	100.125	200.073
9.935	99.8025	100.125	200.073
9.9375	99.8027	100.124	200.073
9.94	99.803	100.124	200.073
9.9425	99.8033	100.123	200.074
9.945	99.8036	100.123	200.074
9.9475	99.8038	100.122	200.074
9.95	99.8041	100.122	200.074
9.9525	99.8044	100.121	200.074
9.955	99.8047	100.121	200.075
9.9575	99.805	100.12	200.075
9.96	99.8052	100.12	200.075
9.9625	99.8055	100.119	200.075
9.965	99.8058	100.119	200.075
9.9675	99.8061	100.118	200.076
9.97	99.8064	100.118	200.076
9.9725	99.8067	100.117	200.076
9.975	99.807	100.117	200.076
9.9775	99.8072	100.116	200.076
9.98	99.8075	100.116	200.077
9.9825	99.8078	100.115	200.077
9.985	99.8081	100.115	200.077
9.9875	99.8084	100.114	200.077
9.99	99.8087	100.114	200.077
9.9925	99.809	100.113	200.078
9.995	99.8093	100.113	200.078
9.9975	99.8096	100.112	200.078
10	99.8099	100.112	200.078
10.0025	99.8101	100.112	200.078
10.005	99.8104	100.111	200.078
10.0075	99.8107	100.111	200.079
10.01	99.811	100.11	200.079
10.0125	99.8113	100.11	200.079
10.015	99.8116	100.109	200.079
10.0175	99.8119	100.109	200.079
10.02	99.8122	100.108	200.08
10.0225	99.8125	100.108	200.08
10.025	99.8128	100.107	200.08
10.0275	99.8131	100.107	200.08
10.03	99.8134	100.106	200.08
10.0325	99.8137	100.106	200.08
10.035	99.814	100.105	200.081
10.0375	99.8143	100.105	200.081
10.04	99.8146	100.104	200.081
10.0425	99.8149	100.104	200.081
10.045	99.8152	100.104	200.081
10.0475	99.8155	100.103	200.081
10.05	99.8159	100.103	200.081
10.0525	99.8162	100.102	200.082
10.055	99.8165	100.102	200.082
10.0575	99.8168	100.101	200.082
10.06	99.8171	100.101	200.082
10.0625	99.8174	100.1	200.082
10.065	99.8177	100.1	200.082
10.0675	99.818	100.099	200.083
10.07	99.8183	100.099	200.083
10.0725	99.8186	100.099	200.083
10.075	99.8189	100.098	200.083
10.0775	99.8193	100.098	200.083
10.08	99.8196	100.097	200.083
10.0825	99.8199	100.097	200.083
10.085	99.8202	100.096	200.084
10.0875	99.8205	100.096	200.084
10.09	99.8208	100.095	200.084
10.0925	99.8211	100.095	200.084
10.095	99.8215	100.094	200.084
10.0975	99.8218	100.094	200.084
10.1	99.8221	100.094	200.084
10.1025	99.8224	100.093	200.084
10.105	99.8227	100.093	200.085
10.1075	99.823	100.092	200.085
10.11	99.8234	100.092	200.085
10.1125	99.8237	100.091	200.085
10.115	99.824	100.091	200.085
10.1175	99.8243	100.09	200.085
10.12	99.8246	100.09	200.085
10.1225	99.825	100.09	200.085
10.125	99.8253	100.089	200.086
10.1275	99.8256	100.089	200.086
10.13	99.8259	100.088	200.086
10.1325	99.8262	100.088	200.086
10.135	99.8266	100.087	200.086
10.1375	99.8269	100.087	200.086
10.14	99.8272	100.087	200.086
10.1425	99.8275	100.086	200.086
10.145	99.8279	100.086	200.086
10.1475	99.8282	100.085	200.087
10.15	99.8285	100.085	200.087
10.1525	99.8288	100.084	200.087
10.155	99.8292	100.084	200.087
10.1575	99.8295	100.084	200.087
10.16	99.8298	100.083	200.087
10.1625	99.8301	100.083	200.087
10.165	99.8305	100.082	200.087
10.1675	99.8308	100.082	200.087
10.17	99.8311	100.081	200.087
10.1725	99.8314	100.081	200.088
10.175	99.8318	100.081	200.088
10.1775	99.8321	100.08	200.088
10.18	99.8324	100.08	200.088
10.1825	99.8328	100.079	200.088
10.185	99.8331	100.079	200.088
10.1875	99.8334	100.078	200.088
10.19	99.8338	100.078	200.088
10.1925	99.8341	100.078	200.088
10.195	99.8344	100.077	200.088
10.1975	99.8348	100.077	200.088
10.2	99.8351	100.076	200.088
10.2025	99.8354	100.076	200.089
10.205	99.8357	100.076	200.089
10.2075	99.8361	100.075	200.089
10.21	99.8364	100.075	200.089
10.2125	99.8367	100.074	200.089
10.215	99.8371	100.074	200.089
10.2175	99.8374	100.074	200.089
10.22	99.8378	100.073	200.089
10.2225	99.8381	100.073	200.089
10.225	99.8384	100.072	200.089
10.2275	99.8388	100.072	200.089
10.23	99.8391	100.072	200.089
10.2325	99.8394	100.071	200.089
10.235	99.8398	100.071	200.09
10.2375	99.8401	100.07	200.09
10.24	99.8404	100.07	200.09
10.2425	99.8408	100.07	200.09
10.245	99.8411	100.069	200.09
10.2475	99.8414	100.069	200.09
10.25	99.8418	100.068	200.09
10.2525	99.8421	100.068	200.09
10.255	99.8425	100.068	200.09
10.2575	99.8428	100.067	200.09
10.26	99.8431	100.067	200.09
10.2625	99.8435	100.066	200.09
10.265	99.8438	100.066	200.09
10.2675	99.8441	100.066	200.09
10.27	99.8445	100.065	200.09
10.2725	99.8448	100.065	200.09
10.275	99.8452	100.064	200.09
10.2775	99.8455	100.064	200.09
10.28	99.8458	100.064	200.091
10.2825	99.8462	100.063	200.091
10.285	99.8465	100.063	200.091
10.2875	99.8469	100.062	200.091
10.29	99.8472	100.062	200.091
10.2925	99.8475	100.062	200.091
10.295	99.8479	100.061	200.091
10.2975	99.8482	100.061	200.091
10.3	99.8486	100.061	200.091
10.3025	99.8489	100.06	200.091
10.305	99.8492	100.06	200.091
10.3075	99.8496	100.059	200.091
10.31	99.8499	100.059	200.091
10.3125	99.8503	100.059	200.091
10.315	99.8506	100.058	200.091
10.3175	99.851	100.058	200.091
10.32	99.8513	100.058	200.091
10.3225	99.8516	100.057	200.091
10.325	99.852	100.057	200.091
10.3275	99.8523	100.056	200.091
10.33	99.8527	100.056	200.091
10.3325	99.853	100.056	200.091
10.335	99.8534	100.055	200.091
10.3375	99.8537	100.055	200.091
10.34	99.854	100.055	200.091
10.3425	99.8544	100.054	200.091
10.345	99.8547	100.054	200.091
10.3475	99.8551	100.054	200.091
10.35	99.8554	100.053	200.091
10.3525	99.8557	100.053	200.091
10.355	99.8561	100.052	200.091
10.3575	99.8564	100.052	200.091
10.36	99.8568	100.052	200.091
10.3625	99.8571	100.051	200.091
10.365	99.8575	100.051	200.091
10.3675	99.8578	100.051	200.092
10.37	99.8582	100.05	200.092
10.3725	99.8585	100.05	200.092
10.375	99.8588	100.05	200.092
10.3775	99.8592	100.049	200.092
10.38	99.8595	100.049	200.092
10.3825	99.8599	100.049	200.092
10.385	99.8602	100.048	200.092
10.3875	99.8606	100.048	200.092
10.39	99.8609	100.048	200.092
10.3925	99.8612	100.047	200.092
10.395	99.8616	100.047	200.092
10.3975	99.8619	100.046	200.092
10.4	99.8623	100.046	200.092
10.4025	99.8626	100.046	200.092
10.405	99.863	100.045	200.092
10.4075	99.8633	100.045	200.092
10.41	99.8636	100.045	200.092
10.4125	99.864	100.044	200.092
10.415	99.8643	100.044	200.092
10.4175	99.8647	100.044	200.092
10.42	99.865	100.043	200.092
10.4225	99.8654	100.043	200.092
10.425	99.8657	100.043	200.092
10.4275	99.8661	100.042	200.092
10.43	99.8664	100.042	200.092
10.4325	99.8667	100.042	200.092
10.435	99.8671	100.041	200.092
10.4375	99.8674	100.041	200.092
10.44	99.8678	100.041	200.092
10.4425	99.8681	100.04	200.091
10.445	99.8685	100.04	200.091
10.4475	99.8688	100.04	200.091
10.45	99.8691	100.039	200.091
10.4525	99.8695	100.039	200.091
10.455	99.8698	100.039	200.091
10.4575	99.8702	100.038	200.091
10.46	99.8705	100.038	200.091
10.4625	99.8709	100.038	200.091
10.465	99.8712	100.037	200.091
10.4675	99.8715	100.037	200.091
10.47	99.8719	100.037	200.091
10.4725	99.8722	100.037	200.091
10.475	99.8726	100.036	200.091
10.4775	99.8729	100.036	200.091
10.48	99.8733	100.036	200.091
10.4825	99.8736	100.035	200.091
10.485	99.8739	100.035	200.091
10.4875	99.8743	100.035	200.091
10.49	99.8746	100.034	200.091
10.4925	99.875	100.034	200.091
10.495	99.8753	100.034	200.091
10.4975	99.8756	100.033	200.091
10.5	99.876	100.033	200.091
10.5025	99.8763	100.033	200.091
10.505	99.8767	100.032	200.091
10.5075	99.877	100.032	200.091
10.51	99.8774	100.032	200.091
10.5125	99.8777	100.031	200.091
10.515	99.878	100.031	200.091
10.5175	99.8784	100.031	200.091
10.52	99.8787	100.031	200.091
10.5225	99.8791	100.03	200.091
10.525	99.8794	100.03	200.091
10.5275	99.8797	100.03	200.091
10.53	99.8801	100.029	200.091
10.5325	99.8804	100.029	200.091
10.535	99.8808	100.029	200.09
10.5375	99.8811	100.028	200.09
10.54	99.8814	100.028	200.09
10.5425	99.8818	100.028	200.09
10.545	99.8821	100.028	200.09
10.5475	99.8824	100.027	200.09
10.55	99.8828	100.027	200.09
10.5525	99.8831	100.027	200.09
10.555	99.8835	100.026	200.09
10.5575	99.8838	100.026	200.09
10.56	99.8841	100.026	200.09
10.5625	99.8845	100.026	200.09
10.565	99.8848	100.025	200.09
10.5675	99.8852	100.025	200.09
10.57	99.8855	100.025	200.09
10.5725	99.8858	100.024	200.09
10.575	99.8862	100.024	200.09
10.5775	99.8865	100.024	200.09
10.58	99.8868	100.024	200.09
10.5825	99.8872	100.023	200.09
10.585	99.8875	100.023	200.09
10.5875	99.8878	100.023	200.089
10.59	99.8882	100.022	200.089
10.5925	99.8885	100.022	200.089
10.595	99.8888	100.022	200.089
10.5975	99.8892	100.022	200.089
10.6	99.8895	100.021	200.089
10.6025	99.8899	100.021	200.089
10.605	99.8902	100.021	200.089
10.6075	99.8905	100.02	200.089
10.61	99.8909	100.02	200.089
10.6125	99.8912	100.02	200.089
10.615	99.8915	100.02	200.089
10.6175	99.8919	100.019	200.089
10.62	99.8922	100.019	200.089
10.6225	99.8925	100.019	200.089
10.625	99.8928	100.019	200.089
10.6275	99.8932	100.018	200.088
10.63	99.8935	100.018	200.088
10.6325	99.8938	100.018	200.088
10.635	99.8942	100.018	200.088
10.6375	99.8945	100.017	200.088
10.64	99.8948	100.017	200.088
10.6425	99.8952	100.017	200.088
10.645	99.8955	100.016	200.088
10.6475	99.8958	100.016	200.088
10.65	99.8962	100.016	200.088
10.6525	99.8965	100.016	200.088
10.655	99.8968	100.015	200.088
10.6575	99.8971	100.015	200.088
10.66	99.8975	100.015	200.088
10.6625	99.8978	100.015	200.088
10.665	99.8981	100.014	200.087
10.6675	99.8985	100.014	200.087
10.67	99.8988	100.014	200.087
10.6725	99.8991	100.014	200.087
10.675	99.8994	100.013	200.087
10.6775	99.8998	100.013	200.087
10.68	99.9001	100.013	200.087
10.6825	99.9004	100.013	200.087
10.685	99.9007	100.012	200.087
10.6875	99.9011	100.012	200.087
10.69	99.9014	100.012	200.087
10.6925	99.9017	100.012	200.087
10.695	99.902	100.011	200.087
10.6975	99.9024	100.011	200.086
10.7	99.9027	100.011	200.086
10.7025	99.903	100.011	200.086
10.705	99.9033	100.01	200.086
10.7075	99.9037	100.01	200.086
10.71	99.904	100.01	200.086
10.7125	99.9043	100.01	200.086
10.715	99.9046	100.009	200.086
10.7175	99.905	100.009	200.086
10.72	99.9053	100.009	200.086
10.7225	99.9056	100.009	200.086
10.725	99.9059	100.009	200.086
10.7275	99.9062	100.008	200.085
10.73	99.9066	100.008	200.085
10.7325	99.9069	100.008	200.085
10.735	99.9072	100.008	200.085
10.7375	99.9075	100.007	200.085
10.74	99.9078	100.007	200.085
10.7425	99.9082	100.007	200.085
10.745	99.9085	100.007	200.085
10.7475	99.9088	100.006	200.085
10.75	99.9091	100.006	200.085
10.7525	99.9094	100.006	200.085
10.755	99.9097	100.006	200.084
10.7575	99.9101	100.006	200.084
10.76	99.9104	100.005	200.084
10.7625	99.9107	100.005	200.084
10.765	99.911	100.005	200.084
10.7675	99.9113	100.005	200.084
10.77	99.9116	100.004	200.084
10.7725	99.912	100.004	200.084
10.775	99.9123	100.004	200.084
10.7775	99.9126	100.004	200.084
10.78	99.9129	100.004	200.084
10.7825	99.9132	100.003	200.083
10.785	99.9135	100.003	200.083
10.7875	99.9138	100.003	200.083
10.79	99.9141	100.003	200.083
10.7925	99.9145	100.002	200.083
10.795	99.9148	100.002	200.083
10.7975	99.9151	100.002	200.083
10.8	99.9154	100.002	200.083
10.8025	99.9157	100.002	200.083
10.805	99.916	100.001	200.083
10.8075	99.9163	100.001	200.082
10.81	99.9166	100.001	200.082
10.8125	99.9169	100.001	200.082
10.815	99.9172	100.001	200.082
10.8175	99.9176	100	200.082
10.82	99.9179	100	200.082
10.8225	99.9182	100	200.082
10.825	99.9185	99.9998	200.082
10.8275	99.9188	99.9996	200.082
10.83	99.9191	99.9993	200.082
10.8325	99.9194	99.9991	200.081
10.835	99.9197	99.9989	200.081
10.8375	99.92	99.9987	200.081
10.84	99.9203	99.9985	200.081
10.8425	99.9206	99.9983	200.081
10.845	99.9209	99.9981	200.081
10.8475	99.9212	99.998	200.081
10.85	99.9215	99.9978	200.081
10.8525	99.9218	99.9976	200.081
10.855	99.9221	99.9974	200.081
10.8575	99.9224	99.9972	200.08
10.86	99.9227	99.997	200.08
10.8625	99.923	99.9968	200.08
10.865	99.9233	99.9966	200.08
10.8675	99.9236	99.9964	200.08
10.87	99.9239	99.9962	200.08
10.8725	99.9242	99.996	200.08
10.875	99.9245	99.9958	200.08
10.8775	99.9248	99.9956	200.08
10.88	99.9251	99.9955	200.079
10.8825	99.9254	99.9953	200.079
10.885	99.9257	99.9951	200.079
10.8875	99.926	99.9949	200.079
10.89	99.9263	99.9947	200.079
10.8925	99.9266	99.9945	200.079
10.895	99.9269	99.9943	200.079
10.8975	99.9272	99.9942	200.079
10.9	99.9275	99.994	200.079
10.9025	99.9278	99.9938	200.078
10.905	99.9281	99.9936	200.078
10.9075	99.9284	99.9934	200.078
10.91	99.9287	99.9933	200.078
10.9125	99.929	99.9931	200.078
10.915	99.9293	99.9929	200.078
10.9175	99.9295	99.9927	200.078
10.92	99.9298	99.9926	200.078
10.9225	99.9301	99.9924	200.077
10.925	99.9304	99.9922	200.077
10.9275	99.9307	99.992	200.077
10.93	99.931	99.9919	200.077
10.9325	99.9313	99.9917	200.077
10.935	99.9316	99.9915	200.077
10.9375	99.9319	99.9913	200.077
10.94	99.9322	99.9912	200.077
10.9425	99.9324	99.991	200.077
10.945	99.9327	99.9908	200.076
10.9475	99.933	99.9907	200.076
10.95	99.9333	99.9905	200.076
10.9525	99.9336	99.9903	200.076
10.955	99.9339	99.9902	200.076
10.9575	99.9342	99.99	200.076
10.96	99.9344	99.9898	200.076
10.9625	99.9347	99.9897	200.076
10.965	99.935	99.9895	200.075
10.9675	99.9353	99.9894	200.075
10.97	99.9356	99.9892	200.075
10.9725	99.9359	99.989	200.075
10.975	99.9361	99.9889	200.075
10.9775	99.9364	99.9887	200.075
10.98	99.9367	99.9886	200.075
10.9825	99.937	99.9884	200.075
10.985	99.9373	99.9882	200.075
10.9875	99.9375	99.9881	200.074
10.99	99.9378	99.9879	200.074
10.9925	99.9381	99.9878	200.074
10.995	99.9384	99.9876	200.074
10.9975	99.9386	99.9875	200.074
11	99.9389	99.9873	200.074
11.0025	99.9392	99.9872	200.074
11.005	99.9395	99.987	200.074
11.0075	99.9398	99.9869	200.073
11.01	99.94	99.9867	200.073
11.0125	99.9403	99.9866	200.073
11.015	99.9406	99.9864	200.073
11.0175	99.9408	99.9863	200.073
11.02	99.9411	99.9861	200.073
11.0225	99.9414	99.986	200.073
11.025	99.9417	99.9858	200.073
11.0275	99.9419	99.9857	200.072
11.03	99.9422	99.9855	200.072
11.0325	99.9425	99.9854	200.072
11.035	99.9427	99.9852	200.072
11.0375	99.943	99.9851	200.072
11.04	99.9433	99.985	200.072
11.0425	99.9436	99.9848	200.072
11.045	99.9438	99.9847	200.072
11.0475	99.9441	99.9845	200.071
11.05	99.9444	99.9844	200.071
11.0525	99.9446	99.9843	200.071
11.055	99.9449	99.9841	200.071
11.0575	99.9452	99.984	200.071
11.06	99.9454	99.9838	200.071
11.0625	99.9457	99.9837	200.071
11.065	99.946	99.9836	200.07
11.0675	99.9462	99.9834	200.07
11.07	99.9465	99.9833	200.07
11.0725	99.9467	99.9832	200.07
11.075	99.947	99.983	200.07
11.0775	99.9473	99.9829	200.07
11.08	99.9475	99.9828	200.07
11.0825	99.9478	99.9826	200.07
11.085	99.9481	99.9825	200.069
11.0875	99.9483	99.9824	200.069
11.09	99.9486	99.9823	200.069
11.0925	99.9488	99.9821	200.069
11.095	99.9491	99.982	200.069
11.0975	99.9493	99.9819	200.069
11.1	99.9496	99.9817	200.069
11.1025	99.9499	99.9816	200.069
11.105	99.9501	99.9815	200.068
11.1075	99.9504	99.9814	200.068
11.11	99.9506	99.9812	200.068
11.1125	99.9509	99.9811	200.068
11.115	99.9511	99.981	200.068
11.1175	99.9514	99.9809	200.068
11.12	99.9517	99.9808	200.068
11.1225	99.9519	99.9806	200.067
11.125	99.9522	99.9805	200.067
11.1275	99.9524	99.9804	200.067
11.13	99.9527	99.9803	200.067
11.1325	99.9529	99.9802	200.067
11.135	99.9532	99.98	200.067
11.1375	99.9534	99.9799	200.067
11.14	99.9537	99.9798	200.067
11.1425	99.9539	99.9797	200.066
11.145	99.9542	99.9796	200.066
11.1475	99.9544	99.9795	200.066
11.15	99.9547	99.9794	200.066
11.1525	99.9549	99.9792	200.066
11.155	99.9551	99.9791	200.066
11.1575	99.9554	99.979	200.066
11.16	99.9556	99.9789	200.065
11.1625	99.9559	99.9788	200.065
11.165	99.9561	99.9787	200.065
11.1675	99.9564	99.9786	200.065
11.17	99.9566	99.9785	200.065
11.1725	99.9569	99.9784	200.065
11.175	99.9571	99.9782	200.065
11.1775	99.9573	99.9781	200.065
11.18	99.9576	99.978	200.064
11.1825	99.9578	99.9779	200.064
11.185	99.9581	99.9778	200.064
11.1875	99.9583	99.9777	200.064
11.19	99.9586	99.9776	200.064
11.1925	99.9588	99.9775	200.064
11.195	99.959	99.9774	200.064
11.1975	99.9593	99.9773	200.063
11.2	99.9595	99.9772	200.063
11.2025	99.9597	99.9771	200.063
11.205	99.96	99.977	200.063
11.2075	99.9602	99.9769	200.063
11.21	99.9604	99.9768	200.063
11.2125	99.9607	99.9767	200.063
11.215	99.9609	99.9766	200.062
11.2175	99.9612	99.9765	200.062
11.22	99.9614	99.9764	200.062
11.2225	99.9616	99.9763	200.062
11.225	99.9619	99.9762	200.062
11.2275	99.9621	99.9761	200.062
11.23	99.9623	99.976	200.062
11.2325	99.9625	99.9759	200.062
11.235	99.9628	99.9758	200.061
11.2375	99.963	99.9758	200.061
11.24	99.9632	99.9757	200.061
11.2425	99.9635	99.9756	200.061
11.245	99.9637	99.9755	200.061
11.2475	99.9639	99.9754	200.061
11.25	99.9641	99.9753	200.061
11.2525	99.9644	99.9752	200.06
11.255	99.9646	99.9751	200.06
11.2575	99.9648	99.975	200.06
11.26	99.9651	99.9749	200.06
11.2625	99.9653	99.9749	200.06
11.265	99.9655	99.9748	200.06
11.2675	99.9657	99.9747	200.06
11.27	99.9659	99.9746	200.059
11.2725	99.9662	99.9745	200.059
11.275	99.9664	99.9744	200.059
11.2775	99.9666	99.9743	200.059
11.28	99.9668	99.9743	200.059
11.2825	99.9671	99.9742	200.059
11.285	99.9673	99.9741	200.059
11.2875	99.9675	99.974	200.058
11.29	99.9677	99.9739	200.058
11.2925	99.9679	99.9739	200.058
11.295	99.9682	99.9738	200.058
11.2975	99.9684	99.9737	200.058
11.3	99.9686	99.9736	200.058
11.3025	99.9688	99.9735	200.058
11.305	99.969	99.9735	200.058
11.3075	99.9692	99.9734	200.057
11.31	99.9694	99.9733	200.057
11.3125	99.9697	99.9732	200.057
11.315	99.9699	99.9732	200.057
11.3175	99.9701	99.9731	200.057
11.32	99.9703	99.973	200.057
11.3225	99.9705	99.9729	200.057
11.325	99.9707	99.9729	200.056
11.3275	99.9709	99.9728	200.056
11.33	99.9711	99.9727	200.056
11.3325	99.9714	99.9726	200.056
11.335	99.9716	99.9726	200.056
11.3375	99.9718	99.9725	200.056
11.34	99.972	99.9724	200.056
11.3425	99.9722	99.9724	200.055
11.345	99.9724	99.9723	200.055
11.3475	99.9726	99.9722	200.055
11.35	99.9728	99.9722	200.055
11.3525	99.973	99.9721	200.055
11.355	99.9732	99.972	200.055
11.3575	99.9734	99.972	200.055
11.36	99.9736	99.9719	200.054
11.3625	99.9738	99.9718	200.054
11.365	99.974	99.9718	200.054
11.3675	99.9742	99.9717	200.054
11.37	99.9745	99.9716	200.054
11.3725	99.9747	99.9716	200.054
11.375	99.9749	99.9715	200.054
11.3775	99.9751	99.9714	200.054
11.38	99.9753	99.9714	200.053
11.3825	99.9755	99.9713	200.053
11.385	99.9757	99.9713	200.053
11.3875	99.9759	99.9712	200.053
11.39	99.9761	99.9711	200.053
11.3925	99.9762	99.9711	200.053
11.395	99.9764	99.971	200.053
11.3975	99.9766	99.971	200.052
11.4	99.9768	99.9709	200.052
11.4025	99.977	99.9708	200.052
11.405	99.9772	99.9708	200.052
11.4075	99.9774	99.9707	200.052
11.41	99.9776	99.9707	200.052
11.4125	99.9778	99.9706	200.052
11.415	99.978	99.9706	200.051
11.4175	99.9782	99.9705	200.051
11.42	99.9784	99.9705	200.051
11.4225	99.9786	99.9704	200.051
11.425	99.9788	99.9703	200.051
11.4275	99.979	99.9703	200.051
11.43	99.9792	99.9702	200.051
11.4325	99.9793	99.9702	200.05
11.435	99.9795	99.9701	200.05
11.4375	99.9797	99.9701	200.05
11.44	99.9799	99.97	200.05
11.4425	99.9801	99.97	200.05
11.445	99.9803	99.9699	200.05
11.4475	99.9805	99.9699	200.05
11.45	99.9807	99.9698	200.05
11.4525	99.9808	99.9698	200.049
11.455	99.981	99.9697	200.049
11.4575	99.9812	99.9697	200.049
11.46	99.9814	99.9696	200.049
11.4625	99.9816	99.9696	200.049
11.465	99.9818	99.9696	200.049
11.4675	99.9819	99.9695	200.049
11.47	99.9821	99.9695	200.048
11.4725	99.9823	99.9694	200.048
11.475	99.9825	99.9694	200.048
11.4775	99.9827	99.9693	200.048
11.48	99.9828	99.9693	200.048
11.4825	99.983	99.9692	200.048
11.485	99.9832	99.9692	200.048
11.4875	99.9834	99.9692	200.047
11.49	99.9836	99.9691	200.047
11.4925	99.9837	99.9691	200.047
11.495	99.9839	99.969	200.047
11.4975	99.9841	99.969	200.047
11.5	99.9843	99.969	200.047
11.5025	99.9844	99.9689	200.047
11.505	99.9846	99.9689	200.047
11.5075	99.9848	99.9688	200.046
11.51	99.985	99.9688	200.046
11.5125	99.9851	99.9688	200.046
11.515	99.9853	99.9687	200.046
11.5175	99.9855	99.9687	200.046
11.52	99.9857	99.9687	200.046
11.5225	99.9858	99.9686	200.046
11.525	99.986	99.9686	200.045
11.5275	99.9862	99.9686	200.045
11.53	99.9863	99.9685	200.045
11.5325	99.9865	99.9685	200.045
11.535	99.9867	99.9685	200.045
11.5375	99.9868	99.9684	200.045
11.54	99.987	99.9684	200.045
11.5425	99.9872	99.9684	200.044
11.545	99.9873	99.9683	200.044
11.5475	99.9875	99.9683	200.044
11.55	99.9877	99.9683	200.044
11.5525	99.9878	99.9682	200.044
11.555	99.988	99.9682	200.044
11.5575	99.9882	99.9682	200.044
11.56	99.9883	99.9681	200.044
11.5625	99.9885	99.9681	200.043
11.565	99.9887	99.9681	200.043
11.5675	99.9888	99.9681	200.043
11.57	99.989	99.968	200.043
11.5725	99.9891	99.968	200.043
11.575	99.9893	99.968	200.043
11.5775	99.9895	99.9679	200.043
11.58	99.9896	99.9679	200.042
11.5825	99.9898	99.9679	200.042
11.585	99.9899	99.9679	200.042
11.5875	99.9901	99.9678	200.042
11.59	99.9903	99.9678	200.042
11.5925	99.9904	99.9678	200.042
11.595	99.9906	99.9678	200.042
11.5975	99.9907	99.9677	200.042
11.6	99.9909	99.9677	200.041
11.6025	99.991	99.9677	200.041
11.605	99.9912	99.9677	200.041
11.6075	99.9913	99.9677	200.041
11.61	99.9915	99.9676	200.041
11.6125	99.9916	99.9676	200.041
11.615	99.9918	99.9676	200.041
11.6175	99.992	99.9676	200.04
11.62	99.9921	99.9676	200.04
11.6225	99.9923	99.9675	200.04
11.625	99.9924	99.9675	200.04
11.6275	99.9926	99.9675	200.04
11.63	99.9927	99.9675	200.04
11.6325	99.9929	99.9675	200.04
11.635	99.993	99.9674	200.04
11.6375	99.9931	99.9674	200.039
11.64	99.9933	99.9674	200.039
11.6425	99.9934	99.9674	200.039
11.645	99.9936	99.9674	200.039
11.6475	99.9937	99.9674	200.039
11.65	99.9939	99.9673	200.039
11.6525	99.994	99.9673	200.039
11.655	99.9942	99.9673	200.039
11.6575	99.9943	99.9673	200.038
11.66	99.9945	99.9673	200.038
11.6625	99.9946	99.9673	200.038
11.665	99.9947	99.9673	200.038
11.6675	99.9949	99.9672	200.038
11.67	99.995	99.9672	200.038
11.6725	99.9952	99.9672	200.038
11.675	99.9953	99.9672	200.037
11.6775	99.9955	99.9672	200.037
11.68	99.9956	99.9672	200.037
11.6825	99.9957	99.9672	200.037
11.685	99.9959	99.9672	200.037
11.6875	99.996	99.9672	200.037
11.69	99.9961	99.9671	200.037
11.6925	99.9963	99.9671	200.037
11.695	99.9964	99.9671	200.036
11.6975	99.9966	99.9671	200.036
11.7	99.9967	99.9671	200.036
11.7025	99.9968	99.9671	200.036
11.705	99.997	99.9671	200.036
11.7075	99.9971	99.9671	200.036
11.71	99.9972	99.9671	200.036
11.7125	99.9974	99.9671	200.036
11.715	99.9975	99.9671	200.035
11.7175	99.9976	99.9671	200.035
11.72	99.9978	99.9671	200.035
11.7225	99.9979	99.967	200.035
11.725	99.998	99.967	200.035
11.7275	99.9982	99.967	200.035
11.73	99.9983	99.967	200.035
11.7325	99.9984	99.967	200.035
11.735	99.9985	99.967	200.034
11.7375	99.9987	99.967	200.034
11.74	99.9988	99.967	200.034
11.7425	99.9989	99.967	200.034
11.745	99.9991	99.967	200.034
11.7475	99.9992	99.967	200.034
11.75	99.9993	99.967	200.034
11.7525	99.9994	99.967	200.034
11.755	99.9996	99.967	200.033
11.7575	99.9997	99.967	200.033
11.76	99.9998	99.967	200.033
11.7625	99.9999	99.967	200.033
11.765	100	99.967	200.033
11.7675	100	99.967	200.033
11.77	100	99.967	200.033
11.7725	100	99.967	200.033
11.775	100.001	99.967	200.032
11.7775	100.001	99.967	200.032
11.78	100.001	99.967	200.032
11.7825	100.001	99.967	200.032
11.785	100.001	99.967	200.032
11.7875	100.001	99.967	200.032
11.79	100.001	99.967	200.032
11.7925	100.001	99.967	200.032
11.795	100.002	99.967	200.031
11.7975	100.002	99.967	200.031
11.8	100.002	99.967	200.031
11.8025	100.002	99.967	200.031
11.805	100.002	99.967	200.031
11.8075	100.002	99.9671	200.031
11.81	100.002	99.9671	200.031
11.8125	100.002	99.9671	200.031
11.815	100.002	99.9671	200.03
11.8175	100.003	99.9671	200.03
11.82	100.003	99.9671	200.03
11.8225	100.003	99.9671	200.03
11.825	100.003	99.9671	200.03
11.8275	100.003	99.9671	200.03
11.83	100.003	99.9671	200.03
11.8325	100.003	99.9671	200.03
11.835	100.003	99.9671	200.03
11.8375	100.003	99.9671	200.029
11.84	100.004	99.9671	200.029
11.8425	100.004	99.9672	200.029
11.845	100.004	99.9672	200.029
11.8475	100.004	99.9672	200.029
11.85	100.004	99.9672	200.029
11.8525	100.004	99.9672	200.029
11.855	100.004	99.9672	200.029
11.8575	100.004	99.9672	200.028
11.86	100.004	99.9672	200.028
11.8625	100.005	99.9672	200.028
11.865	100.005	99.9672	200.028
11.8675	100.005	99.9673	200.028
11.87	100.005	99.9673	200.028
11.8725	100.005	99.9673	200.028
11.875	100.005	99.9673	200.028
11.8775	100.005	99.9673	200.028
11.88	100.005	99.9673	200.027
11.8825	100.005	99.9673	200.027
11.885	100.005	99.9673	200.027
11.8875	100.006	99.9674	200.027
11.89	100.006	99.9674	200.027
11.8925	100.006	99.9674	200.027
11.895	100.006	99.9674	200.027
11.8975	100.006	99.9674	200.027
11.9	100.006	99.9674	200.026
11.9025	100.006	99.9674	200.026
11.905	100.006	99.9675	200.026
11.9075	100.006	99.9675	200.026
11.91	100.006	99.9675	200.026
11.9125	100.007	99.9675	200.026
11.915	100.007	99.9675	200.026
11.9175	100.007	99.9675	200.026
11.92	100.007	99.9676	200.026
11.9225	100.007	99.9676	200.025
11.925	100.007	99.9676	200.025
11.9275	100.007	99.9676	200.025
11.93	100.007	99.9676	200.025
11.9325	100.007	99.9677	200.025
11.935	100.007	99.9677	200.025
11.9375	100.008	99.9677	200.025
11.94	100.008	99.9677	200.025
11.9425	100.008	99.9677	200.025
11.945	100.008	99.9677	200.024
11.9475	100.008	99.9678	200.024
11.95	100.008	99.9678	200.024
11.9525	100.008	99.9678	200.024
11.955	100.008	99.9678	200.024
11.9575	100.008	99.9678	200.024
11.96	100.008	99.9679	200.024
11.9625	100.008	99.9679	200.024
11.965	100.009	99.9679	200.024
11.9675	100.009	99.9679	200.023
11.97	100.009	99.968	200.023
11.9725	100.009	99.968	200.023
11.975	100.009	99.968	200.023
11.9775	100.009	99.968	200.023
11.98	100.009	99.968	200.023
11.9825	100.009	99.9681	200.023
11.985	100.009	99.9681	200.023
11.9875	100.009	99.9681	200.023
11.99	100.009	99.9681	200.022
11.9925	100.009	99.9682	200.022
11.995	100.01	99.9682	200.022
11.9975	100.01	99.9682	200.022
12	100.01	99.9682	200.022
12.0025	100.01	99.9683	200.022
12.005	100.01	99.9683	200.022
12.0075	100.01	99.9683	200.022
12.01	100.01	99.9683	200.022
12.0125	100.01	99.9684	200.022
12.015	100.01	99.9684	200.021
12.0175	100.01	99.9684	200.021
12.02	100.01	99.9684	200.021
12.0225	100.01	99.9685	200.021
12.025	100.011	99.9685	200.021
12.0275	100.011	99.9685	200.021
12.03	100.011	99.9685	200.021
12.0325	100.011	99.9686	200.021
12.035	100.011	99.9686	200.021
12.0375	100.011	99.9686	200.02
12.04	100.011	99.9686	200.02
12.0425	100.011	99.9687	200.02
12.045	100.011	99.9687	200.02
12.0475	100.011	99.9687	200.02
12.05	100.011	99.9688	200.02
12.0525	100.011	99.9688	200.02
12.055	100.011	99.9688	200.02
12.0575	100.012	99.9688	200.02
12.06	100.012	99.9689	200.02
12.0625	100.012	99.9689	200.019
12.065	100.012	99.9689	200.019
12.0675	100.012	99.969	200.019
12.07	100.012	99.969	200.019
12.0725	100.012	99.969	200.019
12.075	100.012	99.969	200.019
12.0775	100.012	99.9691	200.019
12.08	100.012	99.9691	200.019
12.0825	100.012	99.9691	200.019
12.085	100.012	99.9692	200.019
12.0875	100.012	99.9692	200.018
12.09	100.012	99.9692	200.018
12.0925	100.013	99.9693	200.018
12.095	100.013	99.9693	200.018
12.0975	100.013	99.9693	200.018
12.1	100.013	99.9694	200.018
12.1025	100.013	99.9694	200.018
12.105	100.013	99.9694	200.018
12.1075	100.013	99.9695	200.018
12.11	100.013	99.9695	200.018
12.1125	100.013	99.9695	200.017
12.115	100.013	99.9695	200.017
12.1175	100.013	99.9696	200.017
12.12	100.013	99.9696	200.017
12.1225	100.013	99.9696	200.017
12.125	100.013	99.9697	200.017
12.1275	100.013	99.9697	200.017
12.13	100.013	99.9697	200.017
12.1325	100.014	99.9698	200.017
12.135	100.014	99.9698	200.017
12.1375	100.014	99.9698	200.016
12.14	100.014	99.9699	200.016
12.1425	100.014	99.9699	200.016
12.145	100.014	99.97	200.016
12.1475	100.014	99.97	200.016
12.15	100.014	99.97	200.016
12.1525	100.014	99.9701	200.016
12.155	100.014	99.9701	200.016
12.1575	100.014	99.9701	200.016
12.16	100.014	99.9702	200.016
12.1625	100.014	99.9702	200.016
12.165	100.014	99.9702	200.015
12.1675	100.014	99.9703	200.015
12.17	100.014	99.9703	200.015
12.1725	100.015	99.9703	200.015
12.175	100.015	99.9704	200.015
12.1775	100.015	99.9704	200.015
12.18	100.015	99.9705	200.015
12.1825	100.015	99.9705	200.015
12.185	100.015	99.9705	200.015
12.1875	100.015	99.9706	200.015
12.19	100.015	99.9706	200.015
12.1925	100.015	99.9706	200.014
12.195	100.015	99.9707	200.014
12.1975	100.015	99.9707	200.014
12.2	100.015	99.9707	200.014
12.2025	100.015	99.9708	200.014
12.205	100.015	99.9708	200.014
12.2075	100.015	99.9709	200.014
12.21	100.015	99.9709	200.014
12.2125	100.015	99.9709	200.014
12.215	100.015	99.971	200.014
12.2175	100.015	99.971	200.014
12.22	100.016	99.9711	200.013
12.2225	100.016	99.9711	200.013
12.225	100.016	99.9711	200.013
12.2275	100.016	99.9712	200.013
12.23	100.016	99.9712	200.013
12.2325	100.016	99.9713	200.013
12.235	100.016	99.9713	200.013
12.2375	100.016	99.9713	200.013
12.24	100.016	99.9714	200.013
12.2425	100.016	99.9714	200.013
12.245	100.016	99.9714	200.013
12.2475	100.016	99.9715	200.012
12.25	100.016	99.9715	200.012
12.2525	100.016	99.9716	200.012
12.255	100.016	99.9716	200.012
12.2575	100.016	99.9717	200.012
12.26	100.016	99.9717	200.012
12.2625	100.016	99.9717	200.012
12.265	100.016	99.9718	200.012
12.2675	100.016	99.9718	200.012
12.27	100.016	99.9719	200.012
12.2725	100.017	99.9719	200.012
12.275	100.017	99.9719	200.012
12.2775	100.017	99.972	200.011
12.28	100.017	99.972	200.011
12.2825	100.017	99.9721	200.011
12.285	100.017	99.9721	200.011
12.2875	100.017	99.9721	200.011
12.29	100.017	99.9722	200.011
12.2925	100.017	99.9722	200.011
12.295	100.017	99.9723	200.011
12.2975	100.017	99.9723	200.011
12.3	100.017	99.9724	200.011
12.3025	100.017	99.9724	200.011
12.305	100.017	99.9724	200.011
12.3075	100.017	99.9725	200.01
12.31	100.017	99.9725	200.01
12.3125	100.017	99.9726	200.01
12.315	100.017	99.9726	200.01
12.3175	100.017	99.9727	200.01
12.32	100.017	99.9727	200.01
12.3225	100.017	99.9727	200.01
12.325	100.017	99.9728	200.01
12.3275	100.017	99.9728	200.01
12.33	100.017	99.9729	200.01
12.3325	100.017	99.9729	200.01
12.335	100.017	99.973	200.01
12.3375	100.018	99.973	200.009
12.34	100.018	99.973	200.009
12.3425	100.018	99.9731	200.009
12.345	100.018	99.9731	200.009
12.3475	100.018	99.9732	200.009
12.35	100.018	99.9732	200.009
12.3525	100.018	99.9733	200.009
12.355	100.018	99.9733	200.009
12.3575	100.018	99.9734	200.009
12.36	100.018	99.9734	200.009
12.3625	100.018	99.9734	200.009
12.365	100.018	99.9735	200.009
12.3675	100.018	99.9735	200.009
12.37	100.018	99.9736	200.008
12.3725	100.018	99.9736	200.008
12.375	100.018	99.9737	200.008
12.3775	100.018	99.9737	200.008
12.38	100.018	99.9738	200.008
12.3825	100.018	99.9738	200.008
12.385	100.018	99.9739	200.008
12.3875	100.018	99.9739	200.008
12.39	100.018	99.9739	200.008
12.3925	100.018	99.974	200.008
12.395	100.018	99.974	200.008
12.3975	100.018	99.9741	200.008
12.4	100.018	99.9741	200.008
12.4025	100.018	99.9742	200.007
12.405	100.018	99.9742	200.007
12.4075	100.018	99.9743	200.007
12.41	100.018	99.9743	200.007
12.4125	100.018	99.9744	200.007
12.415	100.018	99.9744	200.007
12.4175	100.019	99.9744	200.007
12.42	100.019	99.9745	200.007
12.4225	100.019	99.9745	200.007
12.425	100.019	99.9746	200.007
12.4275	100.019	99.9746	200.007
12.43	100.019	99.9747	200.007
12.4325	100.019	99.9747	200.007
12.435	100.019	99.9748	200.007
12.4375	100.019	99.9748	200.006
12.44	100.019	99.9749	200.006
12.4425	100.019	99.9749	200.006
12.445	100.019	99.975	200.006
12.4475	100.019	99.975	200.006
12.45	100.019	99.9751	200.006
12.4525	100.019	99.9751	200.006
12.455	100.019	99.9751	200.006
12.4575	100.019	99.9752	200.006
12.46	100.019	99.9752	200.006
12.4625	100.019	99.9753	200.006
12.465	100.019	99.9753	200.006
12.4675	100.019	99.9754	200.006
12.47	100.019	99.9754	200.006
12.4725	100.019	99.9755	200.005
12.475	100.019	99.9755	200.005
12.4775	100.019	99.9756	200.005
12.48	100.019	99.9756	200.005
12.4825	100.019	99.9757	200.005
12.485	100.019	99.9757	200.005
12.4875	100.019	99.9758	200.005
12.49	100.019	99.9758	200.005
12.4925	100.019	99.9759	200.005
12.495	100.019	99.9759	200.005
12.4975	100.019	99.976	200.005
12.5	100.019	99.976	200.005
12.5025	100.019	99.9761	200.005
12.505	100.019	99.9761	200.005
12.5075	100.019	99.9762	200.005
12.51	100.019	99.9762	200.004
12.5125	100.019	99.9762	200.004
12.515	100.019	99.9763	200.004
12.5175	100.019	99.9763	200.004
12.52	100.019	99.9764	200.004
12.5225	100.019	99.9764	200.004
12.525	100.019	99.9765	200.004
12.5275	100.019	99.9765	200.004
12.53	100.019	99.9766	200.004
12.5325	100.019	99.9766	200.004
12.535	100.019	99.9767	200.004
12.5375	100.019	99.9767	200.004
12.54	100.02	99.9768	200.004
12.5425	100.02	99.9768	200.004
12.545	100.02	99.9769	200.004
12.5475	100.02	99.9769	200.004
12.55	100.02	99.977	200.003
12.5525	100.02	99.977	200.003
12.555	100.02	99.9771	200.003
12.5575	100.02	99.9771	200.003
12.56	100.02	99.9772	200.003
12.5625	100.02	99.9772	200.003
12.565	100.02	99.9773	200.003
12.5675	100.02	99.9773	200.003
12.57	100.02	99.9774	200.003
12.5725	100.02	99.9774	200.003
12.575	100.02	99.9775	200.003
12.5775	100.02	99.9775	200.003
12.58	100.02	99.9776	200.003
12.5825	100.02	99.9776	200.003
12.585	100.02	99.9777	200.003
12.5875	100.02	99.9777	200.003
12.59	100.02	99.9778	200.003
12.5925	100.02	99.9778	200.002
12.595	100.02	99.9779	200.002
12.5975	100.02	99.9779	200.002
12.6	100.02	99.978	200.002
12.6025	100.02	99.978	200.002
12.605	100.02	99.9781	200.002
12.6075	100.02	99.9781	200.002
12.61	100.02	99.9782	200.002
12.6125	100.02	99.9782	200.002
12.615	100.02	99.9783	200.002
12.6175	100.02	99.9783	200.002
12.62	100.02	99.9784	200.002
12.6225	100.02	99.9784	200.002
12.625	100.02	99.9785	200.002
12.6275	100.02	99.9785	200.002
12.63	100.02	99.9786	200.002
12.6325	100.02	99.9786	200.002
12.635	100.02	99.9787	200.001
12.6375	100.02	99.9787	200.001
12.64	100.02	99.9788	200.001
12.6425	100.02	99.9788	200.001
12.645	100.02	99.9789	200.001
12.6475	100.02	99.9789	200.001
12.65	100.02	99.979	200.001
12.6525	100.02	99.979	200.001
12.655	100.02	99.9791	200.001
12.6575	100.02	99.9791	200.001
12.66	100.02	99.9792	200.001
12.6625	100.02	99.9792	200.001
12.665	100.02	99.9793	200.001
12.6675	100.02	99.9793	200.001
12.67	100.02	99.9794	200.001
12.6725	100.02	99.9794	200.001
12.675	100.02	99.9795	200.001
12.6775	100.02	99.9795	200.001
12.68	100.02	99.9795	200.001
12.6825	100.02	99.9796	200
12.685	100.02	99.9796	200
12.6875	100.02	99.9797	200
12.69	100.02	99.9797	200
12.6925	100.02	99.9798	200
12.695	100.02	99.9798	200
12.6975	100.02	99.9799	200
12.7	100.02	99.9799	200
12.7025	100.02	99.98	200
12.705	100.02	99.98	200
12.7075	100.02	99.9801	200
12.71	100.02	99.9801	200
12.7125	100.02	99.9802	200
12.715	100.02	99.9802	200
12.7175	100.02	99.9803	200
12.72	100.02	99.9803	200
12.7225	100.02	99.9804	200
12.725	100.02	99.9804	200
12.7275	100.02	99.9805	200
12.73	100.02	99.9805	200
12.7325	100.02	99.9806	199.999
12.735	100.02	99.9806	199.999
12.7375	100.02	99.9807	199.999
12.74	100.02	99.9807	199.999
12.7425	100.02	99.9808	199.999
12.745	100.02	99.9808	199.999
12.7475	100.02	99.9809	199.999
12.75	100.02	99.9809	199.999
12.7525	100.02	99.981	199.999
12.755	100.02	99.981	199.999
12.7575	100.02	99.9811	199.999
12.76	100.02	99.9811	199.999
12.7625	100.02	99.9812	199.999
12.765	100.02	99.9812	199.999
12.7675	100.02	99.9813	199.999
12.77	100.02	99.9813	199.999
12.7725	100.02	99.9814	199.999
12.775	100.02	99.9814	199.999
12.7775	100.02	99.9815	199.999
12.78	100.02	99.9815	199.999
12.7825	100.02	99.9816	199.999
12.785	100.02	99.9816	199.999
12.7875	100.02	99.9817	199.998
12.79	100.02	99.9817	199.998
12.7925	100.02	99.9818	199.998
12.795	100.02	99.9818	199.998
12.7975	100.02	99.9819	199.998
12.8	100.02	99.9819	199.998
12.8025	100.02	99.982	199.998
12.805	100.02	99.982	199.998
12.8075	100.02	99.9821	199.998
12.81	100.02	99.9821	199.998
12.8125	100.02	99.9822	199.998
12.815	100.02	99.9822	199.998
12.8175	100.02	99.9823	199.998
12.82	100.02	99.9823	199.998
12.8225	100.02	99.9824	199.998
12.825	100.02	99.9824	199.998
12.8275	100.02	99.9825	199.998
12.83	100.02	99.9825	199.998
12.8325	100.02	99.9826	199.998
12.835	100.02	99.9826	199.998
12.8375	100.02	99.9827	199.998
12.84	100.02	99.9827	199.998
12.8425	100.02	99.9828	199.998
12.845	100.02	99.9828	199.997
12.8475	100.02	99.9829	199.997
12.85	100.02	99.9829	199.997
12.8525	100.02	99.983	199.997
12.855	100.02	99.983	199.997
12.8575	100.02	99.9831	199.997
12.86	100.02	99.9831	199.997
12.8625	100.02	99.9832	199.997
12.865	100.02	99.9832	199.997
12.8675	100.02	99.9833	199.997
12.87	100.02	99.9833	199.997
12.8725	100.02	99.9834	199.997
12.875	100.02	99.9834	199.997
12.8775	100.02	99.9835	199.997
12.88	100.02	99.9835	199.997
12.8825	100.02	99.9836	199.997
12.885	100.02	99.9836	199.997
12.8875	100.019	99.9837	199.997
12.89	100.019	99.9837	199.997
12.8925	100.019	99.9838	199.997
12.895	100.019	99.9838	199.997
12.8975	100.019	99.9839	199.997
12.9	100.019	99.9839	199.997
12.9025	100.019	99.984	199.997
12.905	100.019	99.984	199.997
12.9075	100.019	99.984	199.997
12.91	100.019	99.9841	199.997
12.9125	100.019	99.9841	199.996
12.915	100.019	99.9842	199.996
12.9175	100.019	99.9842	199.996
12.92	100.019	99.9843	199.996
12.9225	100.019	99.9843	199.996
12.925	100.019	99.9844	199.996
12.9275	100.019	99.9844	199.996
12.93	100.019	99.9845	199.996
12.9325	100.019	99.9845	199.996
12.935	100.019	99.9846	199.996
12.9375	100.019	99.9846	199.996
12.94	100.019	99.9847	199.996
12.9425	100.019	99.9847	199.996
12.945	100.019	99.9848	199.996
12.9475	100.019	99.9848	199.996
12.95	100.019	99.9849	199.996
12.9525	100.019	99.9849	199.996
12.955	100.019	99.985	199.996
12.9575	100.019	99.985	199.996
12.96	100.019	99.9851	199.996
12.9625	100.019	99.9851	199.996
12.965	100.019	99.9852	199.996
12.9675	100.019	99.9852	199.996
12.97	100.019	99.9852	199.996
12.9725	100.019	99.9853	199.996
12.975	100.019	99.9853	199.996
12.9775	100.019	99.9854	199.996
12.98	100.019	99.9854	199.996
12.9825	100.019	99.9855	199.996
12.985	100.019	99.9855	199.996
12.9875	100.019	99.9856	199.996
12.99	100.019	99.9856	199.995
12.9925	100.019	99.9857	199.995
12.995	100.019	99.9857	199.995
12.9975	100.019	99.9858	199.995
13	100.019	99.9858	199.995
13.0025	100.019	99.9859	199.995
13.005	100.019	99.9859	199.995
13.0075	100.019	99.986	199.995
13.01	100.019	99.986	199.995
13.0125	100.019	99.9861	199.995
13.015	100.019	99.9861	199.995
13.0175	100.019	99.9861	199.995
13.02	100.019	99.9862	199.995
13.0225	100.019	99.9862	199.995
13.025	100.019	99.9863	199.995
13.0275	100.019	99.9863	199.995
13.03	100.019	99.9864	199.995
13.0325	100.019	99.9864	199.995
13.035	100.019	99.9865	199.995
13.0375	100.019	99.9865	199.995
13.04	100.019	99.9866	199.995
13.0425	100.019	99.9866	199.995
13.045	100.018	99.9867	199.995
13.0475	100.018	99.9867	199.995
13.05	100.018	99.9867	199.995
13.0525	100.018	99.9868	199.995
13.055	100.018	99.9868	199.995
13.0575	100.018	99.9869	199.995
13.06	100.018	99.9869	199.995
13.0625	100.018	99.987	199.995
13.065	100.018	99.987	199.995
13.0675	100.018	99.9871	199.995
13.07	100.018	99.9871	199.995
13.0725	100.018	99.9872	199.995
13.075	100.018	99.9872	199.995
13.0775	100.018	99.9873	199.995
13.08	100.018	99.9873	199.994
13.0825	100.018	99.9873	199.994
13.085	100.018	99.9874	199.994
13.0875	100.018	99.9874	199.994
13.09	100.018	99.9875	199.994
13.0925	100.018	99.9875	199.994
13.095	100.018	99.9876	199.994
13.0975	100.018	99.9876	199.994
13.1	100.018	99.9877	199.994
13.1025	100.018	99.9877	199.994
13.105	100.018	99.9878	199.994
13.1075	100.018	99.9878	199.994
13.11	100.018	99.9878	199.994
13.1125	100.018	99.9879	199.994
13.115	100.018	99.9879	199.994
13.1175	100.018	99.988	199.994
13.12	100.018	99.988	199.994
13.1225	100.018	99.9881	199.994
13.125	100.018	99.9881	199.994
13.1275	100.018	99.9882	199.994
13.13	100.018	99.9882	199.994
13.1325	100.018	99.9882	199.994
13.135	100.018	99.9883	199.994
13.1375	100.018	99.9883	199.994
13.14	100.018	99.9884	199.994
13.1425	100.018	99.9884	199.994
13.145	100.018	99.9885	199.994
13.1475	100.018	99.9885	199.994
13.15	100.018	99.9886	199.994
13.1525	100.018	99.9886	199.994
13.155	100.018	99.9886	199.994
13.1575	100.018	99.9887	199.994
13.16	100.018	99.9887	199.994
13.1625	100.017	99.9888	199.994
13.165	100.017	99.9888	199.994
13.1675	100.017	99.9889	199.994
13.17	100.017	99.9889	199.994
13.1725	100.017	99.9889	199.994
13.175	100.017	99.989	199.994
13.1775	100.017	99.989	199.994
13.18	100.017	99.9891	199.994
13.1825	100.017	99.9891	199.994
13.185	100.017	99.9892	199.994
13.1875	100.017	99.9892	199.994
13.19	100.017	99.9893	199.994
13.1925	100.017	99.9893	199.994
13.195	100.017	99.9893	199.993
13.1975	100.017	99.9894	199.993
13.2	100.017	99.9894	199.993
13.2025	100.017	99.9895	199.993
13.205	100.017	99.9895	199.993
13.2075	100.017	99.9896	199.993
13.21	100.017	99.9896	199.993
13.2125	100.017	99.9896	199.993
13.215	100.017	99.9897	199.993
13.2175	100.017	99.9897	199.993
13.22	100.017	99.9898	199.993
13.2225	100.017	99.9898	199.993
13.225	100.017	99.9898	199.993
13.2275	100.017	99.9899	199.993
13.23	100.017	99.9899	199.993
13.2325	100.017	99.99	199.993
13.235	100.017	99.99	199.993
13.2375	100.017	99.9901	199.993
13.24	100.017	99.9901	199.993
13.2425	100.017	99.9901	199.993
13.245	100.017	99.9902	199.993
13.2475	100.017	99.9902	199.993
13.25	100.017	99.9903	199.993
13.2525	100.017	99.9903	199.993
13.255	100.017	99.9903	199.993
13.2575	100.017	99.9904	199.993
13.26	100.017	99.9904	199.993
13.2625	100.016	99.9905	199.993
13.265	100.016	99.9905	199.993
13.2675	100.016	99.9906	199.993
13.27	100.016	99.9906	199.993
13.2725	100.016	99.9906	199.993
13.275	100.016	99.9907	199.993
13.2775	100.016	99.9907	199.993
13.28	100.016	99.9908	199.993
13.2825	100.016	99.9908	199.993
13.285	100.016	99.9908	199.993
13.2875	100.016	99.9909	199.993
13.29	100.016	99.9909	199.993
13.2925	100.016	99.991	199.993
13.295	100.016	99.991	199.993
13.2975	100.016	99.991	199.993
13.3	100.016	99.9911	199.993
13.3025	100.016	99.9911	199.993
13.305	100.016	99.9912	199.993
13.3075	100.016	99.9912	199.993
13.31	100.016	99.9912	199.993
13.3125	100.016	99.9913	199.993
13.315	100.016	99.9913	199.993
13.3175	100.016	99.9914	199.993
13.32	100.016	99.9914	199.993
13.3225	100.016	99.9914	199.993
13.325	100.016	99.9915	199.993
13.3275	100.016	99.9915	199.993
13.33	100.016	99.9916	199.993
13.3325	100.016	99.9916	199.993
13.335	100.016	99.9916	199.993
13.3375	100.016	99.9917	199.993
13.34	100.016	99.9917	199.993
13.3425	100.016	99.9918	199.993
13.345	100.016	99.9918	199.993
13.3475	100.016	99.9918	199.993
13.35	100.016	99.9919	199.993
13.3525	100.016	99.9919	199.993
13.355	100.015	99.992	199.993
13.3575	100.015	99.992	199.993
13.36	100.015	99.992	199.993
13.3625	100.015	99.9921	199.993
13.365	100.015	99.9921	199.993
13.3675	100.015	99.9921	199.993
13.37	100.015	99.9922	199.992
13.3725	100.015	99.9922	199.992
13.375	100.015	99.9923	199.992
13.3775	100.015	99.9923	199.992
13.38	100.015	99.9923	199.992
13.3825	100.015	99.9924	199.992
13.385	100.015	99.9924	199.992
13.3875	100.015	99.9925	199.992
13.39	100.015	99.9925	199.992
13.3925	100.015	99.9925	199.992
13.395	100.015	99.9926	199.992
13.3975	100.015	99.9926	199.992
13.4	100.015	99.9926	199.992
13.4025	100.015	99.9927	199.992
13.405	100.015	99.9927	199.992
13.4075	100.015	99.9928	199.992
13.41	100.015	99.9928	199.992
13.4125	100.015	99.9928	199.992
13.415	100.015	99.9929	199.992
13.4175	100.015	99.9929	199.992
13.42	100.015	99.9929	199.992
13.4225	100.015	99.993	199.992
13.425	100.015	99.993	199.992
13.4275	100.015	99.993	199.992
13.43	100.015	99.9931	199.992
13.4325	100.015	99.9931	199.992
13.435	100.015	99.9932	199.992
13.4375	100.015	99.9932	199.992
13.44	100.015	99.9932	199.992
13.4425	100.014	99.9933	199.992
13.445	100.014	99.9933	199.992
13.4475	100.014	99.9933	199.992
13.45	100.014	99.9934	199.992
13.4525	100.014	99.9934	199.992
13.455	100.014	99.9934	199.992
13.4575	100.014	99.9935	199.992
13.46	100.014	99.9935	199.992
13.4625	100.014	99.9936	199.992
13.465	100.014	99.9936	199.992
13.4675	100.014	99.9936	199.992
13.47	100.014	99.9937	199.992
13.4725	100.014	99.9937	199.992
13.475	100.014	99.9937	199.992
13.4775	100.014	99.9938	199.992
13.48	100.014	99.9938	199.992
13.4825	100.014	99.9938	199.992
13.485	100.014	99.9939	199.992
13.4875	100.014	99.9939	199.992
13.49	100.014	99.9939	199.992
13.4925	100.014	99.994	199.992
13.495	100.014	99.994	199.992
13.4975	100.014	99.994	199.992
13.5	100.014	99.9941	199.992
13.5025	100.014	99.9941	199.992
13.505	100.014	99.9941	199.992
13.5075	100.014	99.9942	199.992
13.51	100.014	99.9942	199.992
13.5125	100.014	99.9943	199.992
13.515	100.014	99.9943	199.992
13.5175	100.014	99.9943	199.992
13.52	100.014	99.9944	199.992
13.5225	100.014	99.9944	199.992
13.525	100.014	99.9944	199.992
13.5275	100.013	99.9945	199.992
13.53	100.013	99.9945	199.992
13.5325	100.013	99.9945	199.992
13.535	100.013	99.9946	199.992
13.5375	100.013	99.9946	199.992
13.54	100.013	99.9946	199.992
13.5425	100.013	99.9947	199.992
13.545	100.013	99.9947	199.992
13.5475	100.013	99.9947	199.992
13.55	100.013	99.9948	199.992
13.5525	100.013	99.9948	199.992
13.555	100.013	99.9948	199.992
13.5575	100.013	99.9949	199.992
13.56	100.013	99.9949	199.992
13.5625	100.013	99.9949	199.992
13.565	100.013	99.995	199.992
13.5675	100.013	99.995	199.992
13.57	100.013	99.995	199.992
13.5725	100.013	99.995	199.992
13.575	100.013	99.9951	199.992
13.5775	100.013	99.9951	199.992
13.58	100.013	99.9951	199.992
13.5825	100.013	99.9952	199.992
13.585	100.013	99.9952	199.992
13.5875	100.013	99.9952	199.992
13.59	100.013	99.9953	199.992
13.5925	100.013	99.9953	199.992
13.595	100.013	99.9953	199.992
13.5975	100.013	99.9954	199.992
13.6	100.013	99.9954	199.992
13.6025	100.013	99.9954	199.992
13.605	100.013	99.9955	199.992
13.6075	100.013	99.9955	199.992
13.61	100.013	99.9955	199.992
13.6125	100.012	99.9956	199.992
13.615	100.012	99.9956	199.992
13.6175	100.012	99.9956	199.992
13.62	100.012	99.9957	199.992
13.6225	100.012	99.9957	199.992
13.625	100.012	99.9957	199.992
13.6275	100.012	99.9957	199.992
13.63	100.012	99.9958	199.992
13.6325	100.012	99.9958	199.992
13.635	100.012	99.9958	199.992
13.6375	100.012	99.9959	199.992
13.64	100.012	99.9959	199.992
13.6425	100.012	99.9959	199.992
13.645	100.012	99.996	199.992
13.6475	100.012	99.996	199.992
13.65	100.012	99.996	199.992
13.6525	100.012	99.996	199.992
13.655	100.012	99.9961	199.992
13.6575	100.012	99.9961	199.992
13.66	100.012	99.9961	199.992
13.6625	100.012	99.9962	199.992
13.665	100.012	99.9962	199.992
13.6675	100.012	99.9962	199.992
13.67	100.012	99.9963	199.992
13.6725	100.012	99.9963	199.992
13.675	100.012	99.9963	199.992
13.6775	100.012	99.9963	199.992
13.68	100.012	99.9964	199.992
13.6825	100.012	99.9964	199.992
13.685	100.012	99.9964	199.992
13.6875	100.012	99.9965	199.992
13.69	100.012	99.9965	199.992
13.6925	100.012	99.9965	199.992
13.695	100.011	99.9965	199.992
13.6975	100.011	99.9966	199.992
13.7	100.011	99.9966	199.992
13.7025	100.011	99.9966	199.992
13.705	100.011	99.9967	199.992
13.7075	100.011	99.9967	199.992
13.71	100.011	99.9967	199.992
13.7125	100.011	99.9967	199.992
13.715	100.011	99.9968	199.992
13.7175	100.011	99.9968	199.992
13.72	100.011	99.9968	199.992
13.7225	100.011	99.9969	199.992
13.725	100.011	99.9969	199.992
13.7275	100.011	99.9969	199.992
13.73	100.011	99.9969	199.992
13.7325	100.011	99.997	199.992
13.735	100.011	99.997	199.992
13.7375	100.011	99.997	199.992
13.74	100.011	99.9971	199.992
13.7425	100.011	99.9971	199.992
13.745	100.011	99.9971	199.992
13.7475	100.011	99.9971	199.992
13.75	100.011	99.9972	199.992
13.7525	100.011	99.9972	199.992
13.755	100.011	99.9972	199.992
13.7575	100.011	99.9972	199.992
13.76	100.011	99.9973	199.992
13.7625	100.011	99.9973	199.992
13.765	100.011	99.9973	199.992
13.7675	100.011	99.9973	199.992
13.77	100.011	99.9974	199.992
13.7725	100.011	99.9974	199.992
13.775	100.011	99.9974	199.992
13.7775	100.01	99.9975	199.992
13.78	100.01	99.9975	199.992
13.7825	100.01	99.9975	199.992
13.785	100.01	99.9975	199.992
13.7875	100.01	99.9976	199.992
13.79	100.01	99.9976	199.992
13.7925	100.01	99.9976	199.992
13.795	100.01	99.9976	199.992
13.7975	100.01	99.9977	199.992
13.8	100.01	99.9977	199.992
13.8025	100.01	99.9977	199.992
13.805	100.01	99.9977	199.992
13.8075	100.01	99.9978	199.992
13.81	100.01	99.9978	199.992
13.8125	100.01	99.9978	199.992
13.815	100.01	99.9978	199.992
13.8175	100.01	99.9979	199.992
13.82	100.01	99.9979	199.992
13.8225	100.01	99.9979	199.992
13.825	100.01	99.9979	199.992
13.8275	100.01	99.998	199.992
13.83	100.01	99.998	199.992
13.8325	100.01	99.998	199.992
13.835	100.01	99.998	199.992
13.8375	100.01	99.9981	199.992
13.84	100.01	99.9981	199.992
13.8425	100.01	99.9981	199.992
13.845	100.01	99.9981	199.992
13.8475	100.01	99.9982	199.992
13.85	100.01	99.9982	199.992
13.8525	100.01	99.9982	199.992
13.855	100.01	99.9982	199.992
13.8575	100.01	99.9983	199.992
13.86	100.01	99.9983	199.992
13.8625	100.009	99.9983	199.992
13.865	100.009	99.9983	199.992
13.8675	100.009	99.9983	199.992
13.87	100.009	99.9984	199.992
13.8725	100.009	99.9984	199.992
13.875	100.009	99.9984	199.992
13.8775	100.009	99.9984	199.992
13.88	100.009	99.9985	199.992
13.8825	100.009	99.9985	199.992
13.885	100.009	99.9985	199.992
13.8875	100.009	99.9985	199.992
13.89	100.009	99.9986	199.992
13.8925	100.009	99.9986	199.992
13.895	100.009	99.9986	199.992
13.8975	100.009	99.9986	199.992
13.9	100.009	99.9986	199.992
13.9025	100.009	99.9987	199.992
13.905	100.009	99.9987	199.992
13.9075	100.009	99.9987	199.992
13.91	100.009	99.9987	199.992
13.9125	100.009	99.9988	199.992
13.915	100.009	99.9988	199.992
13.9175	100.009	99.9988	199.992
13.92	100.009	99.9988	199.992
13.9225	100.009	99.9988	199.992
13.925	100.009	99.9989	199.992
13.9275	100.009	99.9989	199.992
13.93	100.009	99.9989	199.992
13.9325	100.009	99.9989	199.992
13.935	100.009	99.999	199.992
13.9375	100.009	99.999	199.992
13.94	100.009	99.999	199.992
13.9425	100.009	99.999	199.992
13.945	100.009	99.999	199.992
13.9475	100.009	99.9991	199.992
13.95	100.008	99.9991	199.992
13.9525	100.008	99.9991	199.992
13.955	100.008	99.9991	199.992
13.9575	100.008	99.9991	199.992
13.96	100.008	99.9992	199.992
13.9625	100.008	99.9992	199.992
13.965	100.008	99.9992	199.992
13.9675	100.008	99.9992	199.992
13.97	100.008	99.9993	199.992
13.9725	100.008	99.9993	199.993
13.975	100.008	99.9993	199.993
13.9775	100.008	99.9993	199.993
13.98	100.008	99.9993	199.993
13.9825	100.008	99.9994	199.993
13.985	100.008	99.9994	199.993
13.9875	100.008	99.9994	199.993
13.99	100.008	99.9994	199.993
13.9925	100.008	99.9994	199.993
13.995	100.008	99.9995	199.993
13.9975	100.008	99.9995	199.993
14	100.008	99.9995	199.993
14.0025	100.008	99.9995	199.993
14.005	100.008	99.9995	199.993
14.0075	100.008	99.9996	199.993
14.01	100.008	99.9996	199.993
14.0125	100.008	99.9996	199.993
14.015	100.008	99.9996	199.993
14.0175	100.008	99.9996	199.993
14.02	100.008	99.9997	199.993
14.0225	100.008	99.9997	199.993
14.025	100.008	99.9997	199.993
14.0275	100.008	99.9997	199.993
14.03	100.008	99.9997	199.993
14.0325	100.008	99.9997	199.993
14.035	100.008	99.9998	199.993
14.0375	100.008	99.9998	199.993
14.04	100.007	99.9998	199.993
14.0425	100.007	99.9998	199.993
14.045	100.007	99.9998	199.993
14.0475	100.007	99.9999	199.993
14.05	100.007	99.9999	199.993
14.0525	100.007	99.9999	199.993
14.055	100.007	99.9999	199.993
14.0575	100.007	99.9999	199.993
14.06	100.007	100	199.993
14.0625	100.007	100	199.993
14.065	100.007	100	199.993
14.0675	100.007	100	199.993
14.07	100.007	100	199.993
14.0725	100.007	100	199.993
14.075	100.007	100	199.993
14.0775	100.007	100	199.993
14.08	100.007	100	199.993
14.0825	100.007	100	199.993
14.085	100.007	100	199.993
14.0875	100.007	100	199.993
14.09	100.007	100	199.993
14.0925	100.007	100	199.993
14.095	100.007	100	199.993
14.0975	100.007	100	199.993
14.1	100.007	100	199.993
14.1025	100.007	100	199.993
14.105	100.007	100	199.993
14.1075	100.007	100	199.993
14.11	100.007	100	199.993
14.1125	100.007	100	199.993
14.115	100.007	100	199.993
14.1175	100.007	100	199.993
14.12	100.007	100	199.993
14.1225	100.007	100	199.993
14.125	100.007	100	199.993
14.1275	100.007	100	199.993
14.13	100.007	100	199.993
14.1325	100.006	100	199.993
14.135	100.006	100	199.993
14.1375	100.006	100	199.993
14.14	100.006	100	199.993
14.1425	100.006	100.001	199.993
14.145	100.006	100.001	199.993
14.1475	100.006	100.001	199.993
14.15	100.006	100.001	199.993
14.1525	100.006	100.001	199.993
14.155	100.006	100.001	199.993
14.1575	100.006	100.001	199.993
14.16	100.006	100.001	199.993
14.1625	100.006	100.001	199.993
14.165	100.006	100.001	199.993
14.1675	100.006	100.001	199.993
14.17	100.006	100.001	199.993
14.1725	100.006	100.001	199.993
14.175	100.006	100.001	199.993
14.1775	100.006	100.001	199.993
14.18	100.006	100.001	199.993
14.1825	100.006	100.001	199.993
14.185	100.006	100.001	199.993
14.1875	100.006	100.001	199.993
14.19	100.006	100.001	199.993
14.1925	100.006	100.001	199.993
14.195	100.006	100.001	199.993
14.1975	100.006	100.001	199.993
14.2	100.006	100.001	199.993
14.2025	100.006	100.001	199.993
14.205	100.006	100.001	199.993
14.2075	100.006	100.001	199.993
14.21	100.006	100.001	199.993
14.2125	100.006	100.001	199.993
14.215	100.006	100.001	199.993
14.2175	100.006	100.001	199.993
14.22	100.006	100.001	199.993
14.2225	100.006	100.001	199.993
14.225	100.006	100.001	199.993
14.2275	100.006	100.001	199.993
14.23	100.006	100.001	199.993
14.2325	100.005	100.001	199.993
14.235	100.005	100.001	199.993
14.2375	100.005	100.001	199.993
14.24	100.005	100.001	199.994
14.2425	100.005	100.001	199.994
14.245	100.005	100.001	199.994
14.2475	100.005	100.001	199.994
14.25	100.005	100.001	199.994
14.2525	100.005	100.001	199.994
14.255	100.005	100.001	199.994
14.2575	100.005	100.001	199.994
14.26	100.005	100.001	199.994
14.2625	100.005	100.001	199.994
14.265	100.005	100.001	199.994
14.2675	100.005	100.001	199.994
14.27	100.005	100.001	199.994
14.2725	100.005	100.001	199.994
14.275	100.005	100.001	199.994
14.2775	100.005	100.001	199.994
14.28	100.005	100.001	199.994
14.2825	100.005	100.001	199.994
14.285	100.005	100.001	199.994
14.2875	100.005	100.001	199.994
14.29	100.005	100.001	199.994
14.2925	100.005	100.001	199.994
14.295	100.005	100.001	199.994
14.2975	100.005	100.001	199.994
14.3	100.005	100.001	199.994
14.3025	100.005	100.001	199.994
14.305	100.005	100.001	199.994
14.3075	100.005	100.001	199.994
14.31	100.005	100.001	199.994
14.3125	100.005	100.001	199.994
14.315	100.005	100.001	199.994
14.3175	100.005	100.001	199.994
14.32	100.005	100.001	199.994
14.3225	100.005	100.002	199.994
14.325	100.005	100.002	199.994
14.3275	100.005	100.002	199.994
14.33	100.005	100.002	199.994
14.3325	100.005	100.002	199.994
14.335	100.005	100.002	199.994
14.3375	100.004	100.002	199.994
14.34	100.004	100.002	199.994
14.3425	100.004	100.002	199.994
14.345	100.004	100.002	199.994
14.3475	100.004	100.002	199.994
14.35	100.004	100.002	199.994
14.3525	100.004	100.002	199.994
14.355	100.004	100.002	199.994
14.3575	100.004	100.002	199.994
14.36	100.004	100.002	199.994
14.3625	100.004	100.002	199.994
14.365	100.004	100.002	199.994
14.3675	100.004	100.002	199.994
14.37	100.004	100.002	199.994
14.3725	100.004	100.002	199.994
14.375	100.004	100.002	199.994
14.3775	100.004	100.002	199.994
14.38	100.004	100.002	199.994
14.3825	100.004	100.002	199.994
14.385	100.004	100.002	199.994
14.3875	100.004	100.002	199.994
14.39	100.004	100.002	199.994
14.3925	100.004	100.002	199.994
14.395	100.004	100.002	199.994
14.3975	100.004	100.002	199.994
14.4	100.004	100.002	199.994
14.4025	100.004	100.002	199.994
14.405	100.004	100.002	199.994
14.4075	100.004	100.002	199.994
14.41	100.004	100.002	199.994
14.4125	100.004	100.002	199.994
14.415	100.004	100.002	199.994
14.4175	100.004	100.002	199.994
14.42	100.004	100.002	199.994
14.4225	100.004	100.002	199.994
14.425	100.004	100.002	199.994
14.4275	100.004	100.002	199.994
14.43	100.004	100.002	199.994
14.4325	100.004	100.002	199.994
14.435	100.004	100.002	199.994
14.4375	100.004	100.002	199.994
14.44	100.004	100.002	199.994
14.4425	100.004	100.002	199.994
14.445	100.004	100.002	199.994
14.4475	100.004	100.002	199.994
14.45	100.004	100.002	199.994
14.4525	100.003	100.002	199.994
14.455	100.003	100.002	199.994
14.4575	100.003	100.002	199.995
14.46	100.003	100.002	199.995
14.4625	100.003	100.002	199.995
14.465	100.003	100.002	199.995
14.4675	100.003	100.002	199.995
14.47	100.003	100.002	199.995
14.4725	100.003	100.002	199.995
14.475	100.003	100.002	199.995
14.4775	100.003	100.002	199.995
14.48	100.003	100.002	199.995
14.4825	100.003	100.002	199.995
14.485	100.003	100.002	199.995
14.4875	100.003	100.002	199.995
14.49	100.003	100.002	199.995
14.4925	100.003	100.002	199.995
14.495	100.003	100.002	199.995
14.4975	100.003	100.002	199.995
14.5	100.003	100.002	199.995
14.5025	100.003	100.002	199.995
14.505	100.003	100.002	199.995
14.5075	100.003	100.002	199.995
14.51	100.003	100.002	199.995
14.5125	100.003	100.002	199.995
14.515	100.003	100.002	199.995
14.5175	100.003	100.002	199.995
14.52	100.003	100.002	199.995
14.5225	100.003	100.002	199.995
14.525	100.003	100.002	199.995
14.5275	100.003	100.002	199.995
14.53	100.003	100.002	199.995
14.5325	100.003	100.002	199.995
14.535	100.003	100.002	199.995
14.5375	100.003	100.002	199.995
14.54	100.003	100.002	199.995
14.5425	100.003	100.002	199.995
14.545	100.003	100.002	199.995
14.5475	100.003	100.002	199.995
14.55	100.003	100.002	199.995
14.5525	100.003	100.002	199.995
14.555	100.003	100.002	199.995
14.5575	100.003	100.002	199.995
14.56	100.003	100.002	199.995
14.5625	100.003	100.002	199.995
14.565	100.003	100.002	199.995
14.5675	100.003	100.002	199.995
14.57	100.003	100.002	199.995
14.5725	100.003	100.002	199.995
14.575	100.003	100.002	199.995
14.5775	100.003	100.002	199.995
14.58	100.002	100.002	199.995
14.5825	100.002	100.002	199.995
14.585	100.002	100.002	199.995
14.5875	100.002	100.002	199.995
14.59	100.002	100.002	199.995
14.5925	100.002	100.002	199.995
14.595	100.002	100.002	199.995
14.5975	100.002	100.002	199.995
14.6	100.002	100.002	199.995
14.6025	100.002	100.002	199.995
14.605	100.002	100.002	199.995
14.6075	100.002	100.002	199.995
14.61	100.002	100.002	199.995
14.6125	100.002	100.002	199.995
14.615	100.002	100.002	199.995
14.6175	100.002	100.002	199.995
14.62	100.002	100.003	199.995
14.6225	100.002	100.003	199.995
14.625	100.002	100.003	199.995
14.6275	100.002	100.003	199.995
14.63	100.002	100.003	199.995
14.6325	100.002	100.003	199.995
14.635	100.002	100.003	199.995
14.6375	100.002	100.003	199.995
14.64	100.002	100.003	199.995
14.6425	100.002	100.003	199.995
14.645	100.002	100.003	199.995
14.6475	100.002	100.003	199.995
14.65	100.002	100.003	199.995
14.6525	100.002	100.003	199.995
14.655	100.002	100.003	199.995
14.6575	100.002	100.003	199.995
14.66	100.002	100.003	199.995
14.6625	100.002	100.003	199.996
14.665	100.002	100.003	199.996
14.6675	100.002	100.003	199.996
14.67	100.002	100.003	199.996
14.6725	100.002	100.003	199.996
14.675	100.002	100.003	199.996
14.6775	100.002	100.003	199.996
14.68	100.002	100.003	199.996
14.6825	100.002	100.003	199.996
14.685	100.002	100.003	199.996
14.6875	100.002	100.003	199.996
14.69	100.002	100.003	199.996
14.6925	100.002	100.003	199.996
14.695	100.002	100.003	199.996
14.6975	100.002	100.003	199.996
14.7	100.002	100.003	199.996
14.7025	100.002	100.003	199.996
14.705	100.002	100.003	199.996
14.7075	100.002	100.003	199.996
14.71	100.002	100.003	199.996
14.7125	100.002	100.003	199.996
14.715	100.002	100.003	199.996
14.7175	100.002	100.003	199.996
14.72	100.002	100.003	199.996
14.7225	100.002	100.003	199.996
14.725	100.002	100.003	199.996
14.7275	100.001	100.003	199.996
14.73	100.001	100.003	199.996
14.7325	100.001	100.003	199.996
14.735	100.001	100.003	199.996
14.7375	100.001	100.003	199.996
14.74	100.001	100.003	199.996
14.7425	100.001	100.003	199.996
14.745	100.001	100.003	199.996
14.7475	100.001	100.003	199.996
14.75	100.001	100.003	199.996
14.7525	100.001	100.003	199.996
14.755	100.001	100.003	199.996
14.7575	100.001	100.003	199.996
14.76	100.001	100.003	199.996
14.7625	100.001	100.003	199.996
14.765	100.001	100.003	199.996
14.7675	100.001	100.003	199.996
14.77	100.001	100.003	199.996
14.7725	100.001	100.003	199.996
14.775	100.001	100.003	199.996
14.7775	100.001	100.003	199.996
14.78	100.001	100.003	199.996
14.7825	100.001	100.003	199.996
14.785	100.001	100.003	199.996
14.7875	100.001	100.003	199.996
14.79	100.001	100.003	199.996
14.7925	100.001	100.003	199.996
14.795	100.001	100.003	199.996
14.7975	100.001	100.003	199.996
14.8	100.001	100.003	199.996
14.8025	100.001	100.003	199.996
14.805	100.001	100.003	199.996
14.8075	100.001	100.003	199.996
14.81	100.001	100.003	199.996
14.8125	100.001	100.003	199.996
14.815	100.001	100.003	199.996
14.8175	100.001	100.003	199.996
14.82	100.001	100.003	199.996
14.8225	100.001	100.003	199.996
14.825	100.001	100.003	199.996
14.8275	100.001	100.003	199.996
14.83	100.001	100.003	199.996
14.8325	100.001	100.003	199.996
14.835	100.001	100.003	199.996
14.8375	100.001	100.003	199.996
14.84	100.001	100.003	199.996
14.8425	100.001	100.003	199.996
14.845	100.001	100.003	199.996
14.8475	100.001	100.003	199.996
14.85	100.001	100.003	199.996
14.8525	100.001	100.003	199.996
14.855	100.001	100.003	199.996
14.8575	100.001	100.003	199.996
14.86	100.001	100.003	199.996
14.8625	100.001	100.003	199.996
14.865	100.001	100.003	199.996
14.8675	100.001	100.003	199.996
14.87	100.001	100.003	199.996
14.8725	100.001	100.003	199.996
14.875	100.001	100.003	199.997
14.8775	100.001	100.003	199.997
14.88	100.001	100.003	199.997
14.8825	100.001	100.003	199.997
14.885	100.001	100.003	199.997
14.8875	100.001	100.003	199.997
14.89	100.001	100.003	199.997
14.8925	100.001	100.003	199.997
14.895	100.001	100.003	199.997
14.8975	100.001	100.003	199.997
14.9	100.001	100.003	199.997
14.9025	100	100.003	199.997
14.905	100	100.003	199.997
14.9075	100	100.003	199.997
14.91	100	100.003	199.997
14.9125	100	100.003	199.997
14.915	100	100.003	199.997
14.9175	100	100.003	199.997
14.92	100	100.003	199.997
14.9225	100	100.003	199.997
14.925	100	100.003	199.997
14.9275	100	100.003	199.997
14.93	100	100.003	199.997
14.9325	100	100.003	199.997
14.935	100	100.003	199.997
14.9375	100	100.003	199.997
14.94	100	100.003	199.997
14.9425	100	100.003	199.997
14.945	100	100.003	199.997
14.9475	100	100.003	199.997
14.95	100	100.003	199.997
14.9525	100	100.003	199.997
14.955	100	100.003	199.997
14.9575	100	100.003	199.997
14.96	100	100.003	199.997
14.9625	100	100.003	199.997
14.965	100	100.003	199.997
14.9675	100	100.003	199.997
14.97	100	100.003	199.997
14.9725	100	100.003	199.997
14.975	100	100.003	199.997
14.9775	100	100.003	199.997
14.98	100	100.003	199.997
14.9825	100	100.003	199.997
14.985	100	100.003	199.997
14.9875	100	100.003	199.997
14.99	100	100.003	199.997
14.9925	100	100.003	199.997
14.995	100	100.003	199.997
14.9975	100	100.003	199.997
15	100	100.003	199.997
