# N = 400
# (S0, I0, R0) = (5, 5, 390)
# (a, b, c) = (4, 1, 0.5)
# time, S, I, R
0	5	5	390
0.0025	5.48655	4.98817	389.525
0.005	5.97244	4.97643	389.051
0.0075	6.45769	4.96477	388.578
0.01	6.94229	4.95321	388.105
0.0125	7.42623	4.94173	387.632
0.015	7.90953	4.93033	387.16
0.0175	8.39218	4.91902	386.689
0.02	8.87419	4.9078	386.218
0.0225	9.35555	4.89666	385.748
0.025	9.83627	4.88561	385.278
0.0275	10.3163	4.87464	384.809
0.03	10.7958	4.86375	384.34
0.0325	11.2746	4.85294	383.872
0.035	11.7527	4.84222	383.405
0.0375	12.2302	4.83158	382.938
0.04	12.7071	4.82102	382.472
0.0425	13.1834	4.81054	382.006
0.045	13.659	4.80014	381.541
0.0475	14.1339	4.78981	381.076
0.05	14.6083	4.77957	380.612
0.0525	15.082	4.76941	380.149
0.055	15.555	4.75932	379.686
0.0575	16.0275	4.74931	379.223
0.06	16.4993	4.73938	378.761
0.0625	16.9705	4.72953	378.3
0.065	17.441	4.71975	377.839
0.0675	17.911	4.71004	377.379
0.07	18.3803	4.70041	376.919
0.0725	18.8489	4.69086	376.46
0.075	19.317	4.68138	376.002
0.0775	19.7844	4.67197	375.544
0.08	20.2512	4.66264	375.086
0.0825	20.7174	4.65338	374.629
0.085	21.183	4.6442	374.173
0.0875	21.6479	4.63508	373.717
0.09	22.1123	4.62604	373.262
0.0925	22.576	4.61706	372.807
0.095	23.0391	4.60816	372.353
0.0975	23.5015	4.59933	371.899
0.1	23.9634	4.59057	371.446
0.1025	24.4247	4.58188	370.993
0.105	24.8853	4.57326	370.541
0.1075	25.3453	4.5647	370.09
0.11	25.8047	4.55622	369.639
0.1125	26.2635	4.5478	369.189
0.115	26.7217	4.53945	368.739
0.1175	27.1793	4.53117	368.29
0.12	27.6363	4.52295	367.841
0.1225	28.0927	4.5148	367.393
0.125	28.5484	4.50672	366.945
0.1275	29.0036	4.4987	366.498
0.13	29.4582	4.49075	366.051
0.1325	29.9121	4.48286	365.605
0.135	30.3655	4.47504	365.159
0.1375	30.8182	4.46728	364.715
0.14	31.2704	4.45959	364.27
0.1425	31.7219	4.45196	363.826
0.145	32.1729	4.44439	363.383
0.1475	32.6232	4.43688	362.94
0.15	33.073	4.42944	362.498
0.1525	33.5221	4.42206	362.056
0.155	33.9707	4.41474	361.615
0.1575	34.4187	4.40749	361.174
0.16	34.8661	4.40029	360.734
0.1625	35.3128	4.39316	360.294
0.165	35.759	4.38608	359.855
0.1675	36.2046	4.37907	359.416
0.17	36.6497	4.37211	358.978
0.1725	37.0941	4.36522	358.541
0.175	37.5379	4.35838	358.104
0.1775	37.9812	4.35161	357.667
0.18	38.4238	4.34489	357.231
0.1825	38.8659	4.33823	356.796
0.185	39.3074	4.33163	356.361
0.1875	39.7483	4.32509	355.927
0.19	40.1886	4.3186	355.493
0.1925	40.6283	4.31217	355.06
0.195	41.0675	4.3058	354.627
0.1975	41.5061	4.29948	354.194
0.2	41.944	4.29322	353.763
0.2025	42.3815	4.28702	353.332
0.205	42.8183	4.28087	352.901
0.2075	43.2545	4.27478	352.471
0.21	43.6902	4.26874	352.041
0.2125	44.1253	4.26276	351.612
0.215	44.5598	4.25684	351.183
0.2175	44.9938	4.25096	350.755
0.22	45.4272	4.24514	350.328
0.2225	45.86	4.23938	349.901
0.225	46.2922	4.23367	349.474
0.2275	46.7239	4.22801	349.048
0.23	47.1549	4.22241	348.623
0.2325	47.5855	4.21685	348.198
0.235	48.0154	4.21135	347.773
0.2375	48.4448	4.20591	347.349
0.24	48.8736	4.20051	346.926
0.2425	49.3018	4.19517	346.503
0.245	49.7295	4.18988	346.081
0.2475	50.1566	4.18464	345.659
0.25	50.5832	4.17945	345.237
0.2525	51.0091	4.17431	344.817
0.255	51.4346	4.16922	344.396
0.2575	51.8594	4.16419	343.976
0.26	52.2837	4.1592	343.557
0.2625	52.7074	4.15426	343.138
0.265	53.1306	4.14938	342.72
0.2675	53.5532	4.14454	342.302
0.27	53.9753	4.13975	341.885
0.2725	54.3967	4.13501	341.468
0.275	54.8177	4.13032	341.052
0.2775	55.2381	4.12568	340.636
0.28	55.6579	4.12109	340.221
0.2825	56.0771	4.11655	339.806
0.285	56.4958	4.11205	339.392
0.2875	56.914	4.1076	338.978
0.29	57.3316	4.1032	338.565
0.2925	57.7487	4.09885	338.153
0.295	58.1651	4.09454	337.74
0.2975	58.5811	4.09028	337.329
0.3	58.9965	4.08607	336.917
0.3025	59.4113	4.08191	336.507
0.305	59.8256	4.07779	336.097
0.3075	60.2394	4.07371	335.687
0.31	60.6526	4.06969	335.278
0.3125	61.0652	4.06571	334.869
0.315	61.4773	4.06177	334.461
0.3175	61.8889	4.05788	334.053
0.32	62.2999	4.05404	333.646
0.3225	62.7104	4.05024	333.239
0.325	63.1203	4.04649	332.833
0.3275	63.5297	4.04278	332.428
0.33	63.9385	4.03912	332.022
0.3325	64.3468	4.0355	331.618
0.335	64.7546	4.03192	331.213
0.3375	65.1618	4.02839	330.81
0.34	65.5685	4.02491	330.407
0.3425	65.9746	4.02146	330.004
0.345	66.3802	4.01806	329.602
0.3475	66.7853	4.01471	329.2
0.35	67.1898	4.0114	328.799
0.3525	67.5938	4.00813	328.398
0.355	67.9973	4.0049	327.998
0.3575	68.4002	4.00172	327.598
0.36	68.8026	3.99858	327.199
0.3625	69.2045	3.99548	326.8
0.365	69.6058	3.99243	326.402
0.3675	70.0066	3.98941	326.004
0.37	70.4068	3.98644	325.607
0.3725	70.8065	3.98352	325.21
0.375	71.2057	3.98063	324.814
0.3775	71.6044	3.97779	324.418
0.38	72.0025	3.97498	324.022
0.3825	72.4002	3.97222	323.628
0.385	72.7972	3.9695	323.233
0.3875	73.1938	3.96682	322.839
0.39	73.5898	3.96418	322.446
0.3925	73.9853	3.96159	322.053
0.395	74.3803	3.95903	321.661
0.3975	74.7747	3.95652	321.269
0.4	75.1687	3.95404	320.877
0.4025	75.5621	3.95161	320.486
0.405	75.955	3.94921	320.096
0.4075	76.3473	3.94686	319.706
0.41	76.7392	3.94454	319.316
0.4125	77.1305	3.94227	318.927
0.415	77.5213	3.94004	318.539
0.4175	77.9115	3.93784	318.151
0.42	78.3013	3.93569	317.763
0.4225	78.6905	3.93357	317.376
0.425	79.0793	3.9315	316.989
0.4275	79.4675	3.92946	316.603
0.43	79.8552	3.92746	316.217
0.4325	80.2423	3.9255	315.832
0.435	80.629	3.92358	315.447
0.4375	81.0151	3.9217	315.063
0.44	81.4008	3.91986	314.679
0.4425	81.7859	3.91806	314.296
0.445	82.1705	3.91629	313.913
0.4475	82.5546	3.91457	313.531
0.45	82.9382	3.91288	313.149
0.4525	83.3212	3.91123	312.768
0.455	83.7038	3.90962	312.387
0.4575	84.0858	3.90804	312.006
0.46	84.4674	3.90651	311.626
0.4625	84.8484	3.90501	311.247
0.465	85.2289	3.90355	310.868
0.4675	85.6089	3.90213	310.489
0.47	85.9884	3.90074	310.111
0.4725	86.3674	3.89939	309.733
0.475	86.7459	3.89808	309.356
0.4775	87.1239	3.89681	308.979
0.48	87.5014	3.89557	308.603
0.4825	87.8784	3.89438	308.227
0.485	88.2549	3.89321	307.852
0.4875	88.6308	3.89209	307.477
0.49	89.0063	3.891	307.103
0.4925	89.3813	3.88995	306.729
0.495	89.7557	3.88894	306.355
0.4975	90.1297	3.88796	305.982
0.5	90.5032	3.88702	305.61
0.5025	90.8761	3.88611	305.238
0.505	91.2486	3.88524	304.866
0.5075	91.6206	3.88441	304.495
0.51	91.9921	3.88362	304.124
0.5125	92.363	3.88286	303.754
0.515	92.7335	3.88213	303.384
0.5175	93.1035	3.88145	303.015
0.52	93.473	3.8808	302.646
0.5225	93.842	3.88018	302.278
0.525	94.2105	3.8796	301.91
0.5275	94.5785	3.87906	301.542
0.53	94.946	3.87855	301.175
0.5325	95.313	3.87808	300.809
0.535	95.6795	3.87764	300.443
0.5375	96.0455	3.87724	300.077
0.54	96.4111	3.87687	299.712
0.5425	96.7761	3.87654	299.347
0.545	97.1407	3.87625	298.983
0.5475	97.5048	3.87599	298.619
0.55	97.8684	3.87577	298.256
0.5525	98.2314	3.87558	297.893
0.555	98.594	3.87542	297.531
0.5575	98.9562	3.8753	297.169
0.56	99.3178	3.87522	296.807
0.5625	99.6789	3.87517	296.446
0.565	100.04	3.87516	296.085
0.5675	100.4	3.87518	295.725
0.57	100.759	3.87524	295.365
0.5725	101.119	3.87533	295.006
0.575	101.477	3.87545	294.647
0.5775	101.836	3.87561	294.289
0.58	102.193	3.87581	293.931
0.5825	102.551	3.87604	293.573
0.585	102.907	3.8763	293.216
0.5875	103.264	3.8766	292.86
0.59	103.62	3.87694	292.504
0.5925	103.975	3.8773	292.148
0.595	104.33	3.87771	291.793
0.5975	104.684	3.87814	291.438
0.6	105.038	3.87861	291.083
0.6025	105.391	3.87912	290.729
0.605	105.744	3.87966	290.376
0.6075	106.097	3.88023	290.023
0.61	106.449	3.88084	289.67
0.6125	106.8	3.88149	289.318
0.615	107.151	3.88216	288.966
0.6175	107.502	3.88287	288.615
0.62	107.852	3.88362	288.264
0.6225	108.202	3.8844	287.914
0.625	108.551	3.88521	287.564
0.6275	108.9	3.88606	287.214
0.63	109.248	3.88694	286.865
0.6325	109.596	3.88786	286.517
0.635	109.943	3.88881	286.168
0.6375	110.29	3.88979	285.821
0.64	110.636	3.89081	285.473
0.6425	110.982	3.89186	285.126
0.645	111.327	3.89295	284.78
0.6475	111.672	3.89406	284.434
0.65	112.016	3.89522	284.088
0.6525	112.36	3.8964	283.743
0.655	112.704	3.89763	283.398
0.6575	113.047	3.89888	283.054
0.66	113.39	3.90017	282.71
0.6625	113.732	3.90149	282.367
0.665	114.073	3.90285	282.024
0.6675	114.414	3.90424	281.681
0.67	114.755	3.90566	281.339
0.6725	115.095	3.90712	280.998
0.675	115.435	3.90861	280.656
0.6775	115.774	3.91014	280.315
0.68	116.113	3.91169	279.975
0.6825	116.452	3.91329	279.635
0.685	116.79	3.91491	279.296
0.6875	117.127	3.91657	278.956
0.69	117.464	3.91827	278.618
0.6925	117.801	3.92	278.279
0.695	118.137	3.92176	277.942
0.6975	118.472	3.92355	277.604
0.7	118.807	3.92538	277.267
0.7025	119.142	3.92724	276.931
0.705	119.476	3.92914	276.595
0.7075	119.81	3.93107	276.259
0.71	120.143	3.93303	275.924
0.7125	120.476	3.93503	275.589
0.715	120.809	3.93706	275.254
0.7175	121.141	3.93913	274.92
0.72	121.472	3.94123	274.587
0.7225	121.803	3.94336	274.253
0.725	122.134	3.94552	273.921
0.7275	122.464	3.94772	273.588
0.73	122.794	3.94996	273.256
0.7325	123.123	3.95223	272.925
0.735	123.452	3.95453	272.594
0.7375	123.78	3.95686	272.263
0.74	124.108	3.95923	271.933
0.7425	124.435	3.96164	271.603
0.745	124.762	3.96407	271.274
0.7475	125.089	3.96654	270.945
0.75	125.415	3.96905	270.616
0.7525	125.74	3.97159	270.288
0.755	126.065	3.97416	269.96
0.7575	126.39	3.97677	269.633
0.76	126.714	3.97941	269.306
0.7625	127.038	3.98208	268.98
0.765	127.361	3.98479	268.654
0.7675	127.684	3.98753	268.328
0.77	128.007	3.99031	268.003
0.7725	128.329	3.99312	267.678
0.775	128.65	3.99597	267.354
0.7775	128.972	3.99885	267.03
0.78	129.292	4.00176	266.706
0.7825	129.612	4.00471	266.383
0.785	129.932	4.00769	266.06
0.7875	130.252	4.0107	265.738
0.79	130.57	4.01376	265.416
0.7925	130.889	4.01684	265.094
0.795	131.207	4.01996	264.773
0.7975	131.524	4.02311	264.452
0.8	131.842	4.0263	264.132
0.8025	132.158	4.02952	263.812
0.805	132.474	4.03278	263.493
0.8075	132.79	4.03607	263.174
0.81	133.106	4.0394	262.855
0.8125	133.421	4.04276	262.537
0.815	133.735	4.04615	262.219
0.8175	134.049	4.04958	261.901
0.82	134.363	4.05305	261.584
0.8225	134.676	4.05655	261.268
0.825	134.988	4.06008	260.951
0.8275	135.301	4.06365	260.636
0.83	135.613	4.06725	260.32
0.8325	135.924	4.07089	260.005
0.835	136.235	4.07456	259.691
0.8375	136.545	4.07827	259.376
0.84	136.855	4.08202	259.062
0.8425	137.165	4.0858	258.749
0.845	137.474	4.08961	258.436
0.8475	137.783	4.09346	258.123
0.85	138.091	4.09734	257.811
0.8525	138.399	4.10126	257.499
0.855	138.707	4.10522	257.188
0.8575	139.014	4.10921	256.877
0.86	139.32	4.11323	256.566
0.8625	139.627	4.11729	256.256
0.865	139.932	4.12139	255.946
0.8675	140.238	4.12552	255.637
0.87	140.543	4.12969	255.328
0.8725	140.847	4.13389	255.019
0.875	141.151	4.13813	254.711
0.8775	141.455	4.14241	254.403
0.88	141.758	4.14672	254.096
0.8825	142.06	4.15107	253.789
0.885	142.363	4.15545	253.482
0.8875	142.664	4.15987	253.176
0.89	142.966	4.16432	252.87
0.8925	143.267	4.16881	252.564
0.895	143.567	4.17334	252.259
0.8975	143.868	4.17791	251.955
0.9	144.167	4.18251	251.65
0.9025	144.467	4.18714	251.346
0.905	144.765	4.19181	251.043
0.9075	145.064	4.19652	250.74
0.91	145.362	4.20127	250.437
0.9125	145.659	4.20605	250.135
0.915	145.957	4.21087	249.833
0.9175	146.253	4.21573	249.531
0.92	146.55	4.22062	249.23
0.9225	146.845	4.22555	248.929
0.925	147.141	4.23052	248.629
0.9275	147.436	4.23552	248.329
0.93	147.73	4.24057	248.029
0.9325	148.025	4.24564	247.73
0.935	148.318	4.25076	247.431
0.9375	148.612	4.25591	247.132
0.94	148.905	4.2611	246.834
0.9425	149.197	4.26633	246.537
0.945	149.489	4.2716	246.239
0.9475	149.781	4.2769	245.942
0.95	150.072	4.28224	245.646
0.9525	150.363	4.28762	245.35
0.955	150.653	4.29304	245.054
0.9575	150.943	4.2985	244.759
0.96	151.232	4.30399	244.464
0.9625	151.522	4.30952	244.169
0.965	151.81	4.31509	243.875
0.9675	152.098	4.3207	243.581
0.97	152.386	4.32635	243.287
0.9725	152.674	4.33203	242.994
0.975	152.961	4.33776	242.702
0.9775	153.247	4.34352	242.409
0.98	153.533	4.34932	242.117
0.9825	153.819	4.35516	241.826
0.985	154.105	4.36104	241.534
0.9875	154.389	4.36696	241.244
0.99	154.674	4.37292	240.953
0.9925	154.958	4.37891	240.663
0.995	155.242	4.38495	240.373
0.9975	155.525	4.39102	240.084
1	155.808	4.39714	239.795
1.0025	156.09	4.40329	239.507
1.005	156.372	4.40949	239.218
1.0075	156.654	4.41572	238.931
1.01	156.935	4.422	238.643
1.0125	157.216	4.42831	238.356
1.015	157.496	4.43466	238.069
1.0175	157.776	4.44106	237.783
1.02	158.055	4.44749	237.497
1.0225	158.334	4.45397	237.212
1.025	158.613	4.46049	236.926
1.0275	158.891	4.46704	236.642
1.03	159.169	4.47364	236.357
1.0325	159.447	4.48028	236.073
1.035	159.724	4.48696	235.789
1.0375	160	4.49368	235.506
1.04	160.277	4.50044	235.223
1.0425	160.552	4.50724	234.94
1.045	160.828	4.51408	234.658
1.0475	161.103	4.52097	234.376
1.05	161.377	4.5279	234.095
1.0525	161.651	4.53486	233.814
1.055	161.925	4.54187	233.533
1.0575	162.198	4.54893	233.253
1.06	162.471	4.55602	232.973
1.0625	162.744	4.56316	232.693
1.065	163.016	4.57034	232.414
1.0675	163.288	4.57756	232.135
1.07	163.559	4.58482	231.856
1.0725	163.83	4.59213	231.578
1.075	164.1	4.59948	231.3
1.0775	164.37	4.60687	231.023
1.08	164.64	4.6143	230.746
1.0825	164.909	4.62178	230.469
1.085	165.178	4.6293	230.193
1.0875	165.446	4.63687	229.917
1.09	165.714	4.64448	229.641
1.0925	165.982	4.65213	229.366
1.095	166.249	4.65983	229.091
1.0975	166.516	4.66757	228.816
1.1	166.782	4.67535	228.542
1.1025	167.048	4.68318	228.268
1.105	167.314	4.69105	227.995
1.1075	167.579	4.69897	227.722
1.11	167.844	4.70693	227.449
1.1125	168.108	4.71493	227.177
1.115	168.372	4.72298	226.905
1.1175	168.636	4.73108	226.633
1.12	168.899	4.73922	226.362
1.1225	169.162	4.74741	226.091
1.125	169.424	4.75564	225.82
1.1275	169.686	4.76391	225.55
1.13	169.947	4.77224	225.28
1.1325	170.209	4.7806	225.011
1.135	170.469	4.78902	224.742
1.1375	170.73	4.79748	224.473
1.14	170.99	4.80598	224.204
1.1425	171.249	4.81454	223.936
1.145	171.508	4.82314	223.669
1.1475	171.767	4.83178	223.401
1.15	172.025	4.84047	223.134
1.1525	172.283	4.84921	222.868
1.155	172.541	4.858	222.601
1.1575	172.798	4.86683	222.336
1.16	173.054	4.87571	222.07
1.1625	173.311	4.88464	221.805
1.165	173.567	4.89362	221.54
1.1675	173.822	4.90264	221.275
1.17	174.077	4.91171	221.011
1.1725	174.332	4.92083	220.747
1.175	174.586	4.93	220.484
1.1775	174.84	4.93922	220.221
1.18	175.093	4.94849	219.958
1.1825	175.347	4.9578	219.696
1.185	175.599	4.96716	219.434
1.1875	175.852	4.97658	219.172
1.19	176.103	4.98604	218.911
1.1925	176.355	4.99555	218.65
1.195	176.606	5.00511	218.389
1.1975	176.857	5.01472	218.129
1.2	177.107	5.02438	217.869
1.2025	177.357	5.03409	217.609
1.205	177.606	5.04385	217.35
1.2075	177.855	5.05366	217.091
1.21	178.104	5.06352	216.832
1.2125	178.352	5.07344	216.574
1.215	178.6	5.0834	216.316
1.2175	178.848	5.09341	216.059
1.22	179.095	5.10348	215.802
1.2225	179.342	5.1136	215.545
1.225	179.588	5.12377	215.288
1.2275	179.834	5.13399	215.032
1.23	180.079	5.14426	214.776
1.2325	180.324	5.15458	214.521
1.235	180.569	5.16496	214.266
1.2375	180.813	5.17539	214.011
1.24	181.057	5.18587	213.757
1.2425	181.301	5.19641	213.503
1.245	181.544	5.207	213.249
1.2475	181.787	5.21764	212.996
1.25	182.029	5.22833	212.743
1.2525	182.271	5.23908	212.49
1.255	182.513	5.24989	212.238
1.2575	182.754	5.26074	211.986
1.26	182.994	5.27165	211.734
1.2625	183.235	5.28262	211.483
1.265	183.475	5.29364	211.232
1.2675	183.714	5.30471	210.981
1.27	183.954	5.31584	210.731
1.2725	184.192	5.32703	210.481
1.275	184.431	5.33827	210.231
1.2775	184.669	5.34956	209.982
1.28	184.906	5.36091	209.733
1.2825	185.143	5.37232	209.484
1.285	185.38	5.38378	209.236
1.2875	185.617	5.3953	208.988
1.29	185.853	5.40688	208.741
1.2925	186.088	5.41851	208.493
1.295	186.323	5.4302	208.246
1.2975	186.558	5.44195	208
1.3	186.793	5.45376	207.754
1.3025	187.027	5.46562	207.508
1.305	187.26	5.47754	207.262
1.3075	187.494	5.48952	207.017
1.31	187.726	5.50155	206.772
1.3125	187.959	5.51365	206.528
1.315	188.191	5.5258	206.283
1.3175	188.423	5.53802	206.039
1.32	188.654	5.55029	205.796
1.3225	188.885	5.56262	205.553
1.325	189.115	5.57501	205.31
1.3275	189.345	5.58746	205.067
1.33	189.575	5.59997	204.825
1.3325	189.804	5.61254	204.583
1.335	190.033	5.62517	204.342
1.3375	190.262	5.63786	204.101
1.34	190.49	5.65062	203.86
1.3425	190.717	5.66343	203.619
1.345	190.945	5.6763	203.379
1.3475	191.172	5.68924	203.139
1.35	191.398	5.70224	202.9
1.3525	191.624	5.7153	202.66
1.355	191.85	5.72842	202.421
1.3575	192.075	5.74161	202.183
1.36	192.3	5.75486	201.945
1.3625	192.525	5.76817	201.707
1.365	192.749	5.78154	201.469
1.3675	192.973	5.79498	201.232
1.37	193.196	5.80848	200.995
1.3725	193.419	5.82204	200.759
1.375	193.642	5.83567	200.522
1.3775	193.864	5.84937	200.286
1.38	194.086	5.86313	200.051
1.3825	194.307	5.87695	199.816
1.385	194.528	5.89084	199.581
1.3875	194.749	5.90479	199.346
1.39	194.969	5.91881	199.112
1.3925	195.189	5.9329	198.878
1.395	195.409	5.94705	198.644
1.3975	195.628	5.96127	198.411
1.4	195.846	5.97555	198.178
1.4025	196.065	5.9899	197.946
1.405	196.282	6.00432	197.713
1.4075	196.5	6.01881	197.481
1.41	196.717	6.03336	197.25
1.4125	196.934	6.04799	197.018
1.415	197.15	6.06268	196.787
1.4175	197.366	6.07744	196.557
1.42	197.581	6.09226	196.326
1.4225	197.797	6.10716	196.096
1.425	198.011	6.12213	195.867
1.4275	198.226	6.13716	195.637
1.43	198.44	6.15227	195.408
1.4325	198.653	6.16744	195.179
1.435	198.866	6.18269	194.951
1.4375	199.079	6.19801	194.723
1.44	199.291	6.21339	194.495
1.4425	199.503	6.22885	194.268
1.445	199.715	6.24438	194.041
1.4475	199.926	6.25999	193.814
1.45	200.137	6.27566	193.588
1.4525	200.347	6.29141	193.361
1.455	200.557	6.30723	193.136
1.4575	200.767	6.32312	192.91
1.46	200.976	6.33909	192.685
1.4625	201.185	6.35512	192.46
1.465	201.393	6.37124	192.236
1.4675	201.601	6.38742	192.011
1.47	201.809	6.40369	191.787
1.4725	202.016	6.42002	191.564
1.475	202.223	6.43643	191.341
1.4775	202.429	6.45292	191.118
1.48	202.635	6.46948	190.895
1.4825	202.841	6.48612	190.673
1.485	203.046	6.50283	190.451
1.4875	203.251	6.51962	190.229
1.49	203.456	6.53649	190.008
1.4925	203.66	6.55344	189.787
1.495	203.863	6.57046	189.566
1.4975	204.067	6.58756	189.346
1.5	204.27	6.60474	189.126
1.5025	204.472	6.62199	188.906
1.505	204.674	6.63933	188.687
1.5075	204.876	6.65674	188.467
1.51	205.077	6.67423	188.249
1.5125	205.278	6.69181	188.03
1.515	205.478	6.70946	187.812
1.5175	205.679	6.72719	187.594
1.52	205.878	6.745	187.377
1.5225	206.078	6.7629	187.16
1.525	206.276	6.78087	186.943
1.5275	206.475	6.79893	186.726
1.53	206.673	6.81707	186.51
1.5325	206.871	6.83529	186.294
1.535	207.068	6.85359	186.078
1.5375	207.265	6.87198	185.863
1.54	207.462	6.89045	185.648
1.5425	207.658	6.909	185.433
1.545	207.853	6.92764	185.219
1.5475	208.049	6.94636	185.005
1.55	208.244	6.96517	184.791
1.5525	208.438	6.98406	184.578
1.555	208.632	7.00303	184.365
1.5575	208.826	7.0221	184.152
1.56	209.019	7.04124	183.939
1.5625	209.212	7.06048	183.727
1.565	209.405	7.0798	183.515
1.5675	209.597	7.09921	183.304
1.57	209.789	7.1187	183.093
1.5725	209.98	7.13828	182.882
1.575	210.171	7.15795	182.671
1.5775	210.361	7.17771	182.461
1.58	210.552	7.19756	182.251
1.5825	210.741	7.2175	182.041
1.585	210.931	7.23753	181.832
1.5875	211.12	7.25764	181.623
1.59	211.308	7.27785	181.414
1.5925	211.496	7.29815	181.206
1.595	211.684	7.31854	180.998
1.5975	211.871	7.33901	180.79
1.6	212.058	7.35959	180.582
1.6025	212.245	7.38025	180.375
1.605	212.431	7.40101	180.168
1.6075	212.617	7.42186	179.962
1.61	212.802	7.4428	179.755
1.6125	212.987	7.46383	179.549
1.615	213.171	7.48496	179.344
1.6175	213.355	7.50619	179.139
1.62	213.539	7.52751	178.934
1.6225	213.722	7.54892	178.729
1.625	213.905	7.57043	178.524
1.6275	214.088	7.59204	178.32
1.63	214.27	7.61374	178.117
1.6325	214.451	7.63554	177.913
1.635	214.633	7.65743	177.71
1.6375	214.813	7.67943	177.507
1.64	214.994	7.70152	177.305
1.6425	215.174	7.72371	177.102
1.645	215.354	7.746	176.901
1.6475	215.533	7.76838	176.699
1.65	215.712	7.79087	176.498
1.6525	215.89	7.81346	176.297
1.655	216.068	7.83615	176.096
1.6575	216.246	7.85894	175.896
1.66	216.423	7.88183	175.695
1.6625	216.599	7.90482	175.496
1.665	216.776	7.92791	175.296
1.6675	216.952	7.95111	175.097
1.67	217.127	7.97441	174.898
1.6725	217.302	7.99781	174.7
1.675	217.477	8.02131	174.502
1.6775	217.651	8.04492	174.304
1.68	217.825	8.06864	174.106
1.6825	217.999	8.09246	173.909
1.685	218.172	8.11638	173.712
1.6875	218.345	8.14041	173.515
1.69	218.517	8.16455	173.319
1.6925	218.689	8.1888	173.123
1.695	218.86	8.21315	172.927
1.6975	219.031	8.23761	172.731
1.7	219.202	8.26218	172.536
1.7025	219.372	8.28685	172.341
1.705	219.542	8.31164	172.147
1.7075	219.711	8.33653	171.952
1.71	219.88	8.36153	171.758
1.7125	220.049	8.38665	171.565
1.715	220.217	8.41188	171.371
1.7175	220.384	8.43721	171.178
1.72	220.552	8.46266	170.986
1.7225	220.718	8.48822	170.793
1.725	220.885	8.51389	170.601
1.7275	221.051	8.53968	170.409
1.73	221.217	8.56558	170.218
1.7325	221.382	8.5916	170.027
1.735	221.547	8.61772	169.836
1.7375	221.711	8.64397	169.645
1.74	221.875	8.67033	169.455
1.7425	222.038	8.6968	169.265
1.745	222.201	8.7234	169.075
1.7475	222.364	8.7501	168.886
1.75	222.526	8.77693	168.697
1.7525	222.688	8.80387	168.508
1.755	222.85	8.83094	168.319
1.7575	223.011	8.85812	168.131
1.76	223.171	8.88542	167.943
1.7625	223.331	8.91284	167.756
1.765	223.491	8.94038	167.569
1.7675	223.65	8.96804	167.382
1.77	223.809	8.99583	167.195
1.7725	223.968	9.02373	167.009
1.775	224.126	9.05176	166.823
1.7775	224.283	9.07991	166.637
1.78	224.44	9.10818	166.451
1.7825	224.597	9.13658	166.266
1.785	224.753	9.1651	166.081
1.7875	224.909	9.19375	165.897
1.79	225.065	9.22252	165.713
1.7925	225.22	9.25142	165.529
1.795	225.374	9.28044	165.345
1.7975	225.529	9.3096	165.162
1.8	225.682	9.33888	164.979
1.8025	225.836	9.36828	164.796
1.805	225.989	9.39782	164.614
1.8075	226.141	9.42748	164.431
1.81	226.293	9.45728	164.25
1.8125	226.445	9.4872	164.068
1.815	226.596	9.51726	163.887
1.8175	226.747	9.54745	163.706
1.82	226.897	9.57776	163.525
1.8225	227.047	9.60822	163.345
1.825	227.196	9.6388	163.165
1.8275	227.345	9.66952	162.985
1.83	227.494	9.70037	162.806
1.8325	227.642	9.73135	162.627
1.835	227.79	9.76247	162.448
1.8375	227.937	9.79373	162.27
1.84	228.084	9.82512	162.091
1.8425	228.23	9.85665	161.913
1.845	228.376	9.88832	161.736
1.8475	228.521	9.92012	161.559
1.85	228.666	9.95207	161.382
1.8525	228.811	9.98415	161.205
1.855	228.955	10.0164	161.028
1.8575	229.099	10.0487	160.852
1.86	229.242	10.0812	160.677
1.8625	229.385	10.1139	160.501
1.865	229.527	10.1467	160.326
1.8675	229.669	10.1796	160.151
1.87	229.811	10.2127	159.976
1.8725	229.952	10.2459	159.802
1.875	230.093	10.2792	159.628
1.8775	230.233	10.3127	159.454
1.88	230.373	10.3464	159.281
1.8825	230.512	10.3802	159.108
1.885	230.651	10.4141	158.935
1.8875	230.789	10.4482	158.763
1.89	230.927	10.4825	158.59
1.8925	231.065	10.5168	158.419
1.895	231.202	10.5514	158.247
1.8975	231.338	10.5861	158.076
1.9	231.474	10.6209	157.905
1.9025	231.61	10.6559	157.734
1.905	231.745	10.691	157.564
1.9075	231.88	10.7263	157.394
1.91	232.014	10.7617	157.224
1.9125	232.148	10.7973	157.054
1.915	232.282	10.8331	156.885
1.9175	232.415	10.869	156.716
1.92	232.547	10.905	156.548
1.9225	232.679	10.9413	156.379
1.925	232.811	10.9776	156.212
1.9275	232.942	11.0142	156.044
1.93	233.073	11.0508	155.876
1.9325	233.203	11.0877	155.709
1.935	233.333	11.1247	155.543
1.9375	233.462	11.1618	155.376
1.94	233.591	11.1992	155.21
1.9425	233.719	11.2367	155.044
1.945	233.847	11.2743	154.879
1.9475	233.975	11.3121	154.713
1.95	234.102	11.3501	154.548
1.9525	234.228	11.3882	154.384
1.955	234.354	11.4265	154.219
1.9575	234.48	11.465	154.055
1.96	234.605	11.5036	153.892
1.9625	234.73	11.5424	153.728
1.965	234.854	11.5813	153.565
1.9675	234.977	11.6205	153.402
1.97	235.101	11.6598	153.24
1.9725	235.223	11.6992	153.077
1.975	235.346	11.7389	152.915
1.9775	235.468	11.7787	152.754
1.98	235.589	11.8187	152.592
1.9825	235.71	11.8588	152.431
1.985	235.83	11.8991	152.271
1.9875	235.95	11.9396	152.11
1.99	236.07	11.9803	151.95
1.9925	236.189	12.0211	151.79
1.995	236.307	12.0621	151.631
1.9975	236.425	12.1033	151.471
2	236.543	12.1447	151.312
2.0025	236.66	12.1862	151.154
2.005	236.777	12.228	150.995
2.0075	236.893	12.2699	150.837
2.01	237.008	12.312	150.68
2.0125	237.123	12.3542	150.522
2.015	237.238	12.3967	150.365
2.0175	237.352	12.4393	150.208
2.02	237.466	12.4821	150.052
2.0225	237.579	12.5251	149.896
2.025	237.692	12.5682	149.74
2.0275	237.804	12.6116	149.584
2.03	237.916	12.6551	149.429
2.0325	238.027	12.6989	149.274
2.035	238.138	12.7428	149.119
2.0375	238.248	12.7869	148.965
2.04	238.358	12.8312	148.811
2.0425	238.467	12.8756	148.657
2.045	238.576	12.9203	148.503
2.0475	238.685	12.9652	148.35
2.05	238.792	13.0102	148.197
2.0525	238.9	13.0555	148.045
2.055	239.007	13.1009	147.893
2.0575	239.113	13.1465	147.741
2.06	239.219	13.1923	147.589
2.0625	239.324	13.2383	147.438
2.065	239.429	13.2845	147.287
2.0675	239.533	13.331	147.136
2.07	239.637	13.3776	146.985
2.0725	239.74	13.4244	146.835
2.075	239.843	13.4714	146.685
2.0775	239.946	13.5185	146.536
2.08	240.047	13.5659	146.387
2.0825	240.149	13.6135	146.238
2.085	240.25	13.6613	146.089
2.0875	240.35	13.7093	145.941
2.09	240.45	13.7575	145.793
2.0925	240.549	13.806	145.645
2.095	240.648	13.8546	145.498
2.0975	240.746	13.9034	145.351
2.1	240.844	13.9524	145.204
2.1025	240.941	14.0016	145.057
2.105	241.038	14.0511	144.911
2.1075	241.134	14.1007	144.765
2.11	241.23	14.1506	144.62
2.1125	241.325	14.2006	144.475
2.115	241.419	14.2509	144.33
2.1175	241.514	14.3014	144.185
2.12	241.607	14.3521	144.041
2.1225	241.7	14.403	143.897
2.125	241.793	14.4542	143.753
2.1275	241.885	14.5055	143.61
2.13	241.976	14.5571	143.466
2.1325	242.067	14.6088	143.324
2.135	242.158	14.6608	143.181
2.1375	242.248	14.7131	143.039
2.14	242.337	14.7655	142.897
2.1425	242.426	14.8181	142.756
2.145	242.515	14.871	142.614
2.1475	242.602	14.9241	142.473
2.15	242.69	14.9774	142.333
2.1525	242.777	15.031	142.192
2.155	242.863	15.0847	142.052
2.1575	242.949	15.1387	141.913
2.16	243.034	15.1929	141.773
2.1625	243.118	15.2474	141.634
2.165	243.202	15.302	141.496
2.1675	243.286	15.3569	141.357
2.17	243.369	15.4121	141.219
2.1725	243.451	15.4674	141.081
2.175	243.533	15.523	140.944
2.1775	243.615	15.5788	140.806
2.18	243.696	15.6349	140.669
2.1825	243.776	15.6912	140.533
2.185	243.856	15.7477	140.397
2.1875	243.935	15.8044	140.261
2.19	244.014	15.8614	140.125
2.1925	244.092	15.9186	139.99
2.195	244.169	15.9761	139.855
2.1975	244.246	16.0338	139.72
2.2	244.323	16.0917	139.585
2.2025	244.399	16.1499	139.451
2.205	244.474	16.2083	139.318
2.2075	244.549	16.267	139.184
2.21	244.623	16.3259	139.051
2.2125	244.697	16.3851	138.918
2.215	244.77	16.4445	138.786
2.2175	244.843	16.5041	138.653
2.22	244.915	16.564	138.521
2.2225	244.986	16.6241	138.39
2.225	245.057	16.6845	138.259
2.2275	245.127	16.7451	138.128
2.23	245.197	16.806	137.997
2.2325	245.266	16.8671	137.867
2.235	245.335	16.9285	137.737
2.2375	245.403	16.9901	137.607
2.24	245.47	17.052	137.478
2.2425	245.537	17.1142	137.349
2.245	245.604	17.1766	137.22
2.2475	245.669	17.2392	137.091
2.25	245.735	17.3021	136.963
2.2525	245.799	17.3653	136.835
2.255	245.863	17.4287	136.708
2.2575	245.927	17.4924	136.581
2.26	245.99	17.5564	136.454
2.2625	246.052	17.6206	136.327
2.265	246.114	17.685	136.201
2.2675	246.175	17.7498	136.075
2.27	246.235	17.8148	135.95
2.2725	246.295	17.88	135.825
2.275	246.355	17.9455	135.7
2.2775	246.414	18.0113	135.575
2.28	246.472	18.0774	135.451
2.2825	246.529	18.1437	135.327
2.285	246.586	18.2103	135.203
2.2875	246.643	18.2772	135.08
2.29	246.699	18.3443	134.957
2.2925	246.754	18.4118	134.834
2.295	246.809	18.4794	134.712
2.2975	246.863	18.5474	134.59
2.3	246.916	18.6156	134.468
2.3025	246.969	18.6842	134.347
2.305	247.021	18.7529	134.226
2.3075	247.073	18.822	134.105
2.31	247.124	18.8913	133.985
2.3125	247.175	18.961	133.864
2.315	247.224	19.0309	133.745
2.3175	247.274	19.1011	133.625
2.32	247.322	19.1715	133.506
2.3225	247.37	19.2423	133.387
2.325	247.418	19.3133	133.269
2.3275	247.465	19.3846	133.151
2.33	247.511	19.4562	133.033
2.3325	247.556	19.5281	132.915
2.335	247.601	19.6003	132.798
2.3375	247.646	19.6728	132.681
2.34	247.69	19.7456	132.565
2.3425	247.733	19.8186	132.449
2.345	247.775	19.8919	132.333
2.3475	247.817	19.9656	132.217
2.35	247.858	20.0395	132.102
2.3525	247.899	20.1137	131.987
2.355	247.939	20.1882	131.873
2.3575	247.978	20.2631	131.759
2.36	248.017	20.3382	131.645
2.3625	248.055	20.4136	131.531
2.365	248.093	20.4893	131.418
2.3675	248.13	20.5653	131.305
2.37	248.166	20.6416	131.192
2.3725	248.202	20.7182	131.08
2.375	248.236	20.7951	130.968
2.3775	248.271	20.8723	130.857
2.38	248.305	20.9499	130.746
2.3825	248.338	21.0277	130.635
2.385	248.37	21.1058	130.524
2.3875	248.402	21.1843	130.414
2.39	248.433	21.263	130.304
2.3925	248.463	21.3421	130.194
2.395	248.493	21.4214	130.085
2.3975	248.522	21.5011	129.976
2.4	248.551	21.5811	129.868
2.4025	248.579	21.6614	129.76
2.405	248.606	21.742	129.652
2.4075	248.633	21.823	129.544
2.41	248.659	21.9042	129.437
2.4125	248.684	21.9858	129.33
2.415	248.709	22.0677	129.224
2.4175	248.733	22.1499	129.117
2.42	248.756	22.2324	129.012
2.4225	248.779	22.3152	128.906
2.425	248.801	22.3984	128.801
2.4275	248.822	22.4819	128.696
2.43	248.843	22.5657	128.592
2.4325	248.863	22.6498	128.487
2.435	248.882	22.7343	128.384
2.4375	248.901	22.819	128.28
2.44	248.919	22.9041	128.177
2.4425	248.936	22.9896	128.074
2.445	248.953	23.0753	127.972
2.4475	248.969	23.1614	127.87
2.45	248.984	23.2479	127.768
2.4525	248.999	23.3346	127.666
2.455	249.013	23.4217	127.565
2.4575	249.026	23.5091	127.465
2.46	249.039	23.5969	127.364
2.4625	249.051	23.685	127.264
2.465	249.062	23.7734	127.165
2.4675	249.073	23.8622	127.065
2.47	249.083	23.9513	126.966
2.4725	249.092	24.0407	126.868
2.475	249.1	24.1305	126.769
2.4775	249.108	24.2206	126.671
2.48	249.115	24.311	126.574
2.4825	249.122	24.4018	126.476
2.485	249.128	24.493	126.379
2.4875	249.133	24.5845	126.283
2.49	249.137	24.6763	126.187
2.4925	249.141	24.7685	126.091
2.495	249.144	24.861	125.995
2.4975	249.146	24.9539	125.9
2.5	249.148	25.0471	125.805
2.5025	249.149	25.1407	125.711
2.505	249.149	25.2346	125.617
2.5075	249.148	25.3288	125.523
2.51	249.147	25.4235	125.43
2.5125	249.145	25.5184	125.337
2.515	249.142	25.6138	125.244
2.5175	249.139	25.7094	125.151
2.52	249.135	25.8055	125.059
2.5225	249.13	25.9019	124.968
2.525	249.125	25.9986	124.877
2.5275	249.119	26.0957	124.786
2.53	249.112	26.1932	124.695
2.5325	249.104	26.291	124.605
2.535	249.096	26.3892	124.515
2.5375	249.087	26.4877	124.426
2.54	249.077	26.5866	124.336
2.5425	249.066	26.6859	124.248
2.545	249.055	26.7855	124.159
2.5475	249.043	26.8855	124.071
2.55	249.031	26.9859	123.983
2.5525	249.017	27.0866	123.896
2.555	249.003	27.1877	123.809
2.5575	248.988	27.2892	123.723
2.56	248.973	27.391	123.636
2.5625	248.956	27.4932	123.55
2.565	248.939	27.5958	123.465
2.5675	248.922	27.6987	123.38
2.57	248.903	27.802	123.295
2.5725	248.884	27.9057	123.21
2.575	248.864	28.0097	123.126
2.5775	248.843	28.1142	123.043
2.58	248.822	28.219	122.959
2.5825	248.799	28.3241	122.876
2.585	248.776	28.4297	122.794
2.5875	248.753	28.5356	122.712
2.59	248.728	28.6419	122.63
2.5925	248.703	28.7486	122.548
2.595	248.677	28.8557	122.467
2.5975	248.651	28.9631	122.386
2.6	248.623	29.071	122.306
2.6025	248.595	29.1792	122.226
2.605	248.566	29.2877	122.146
2.6075	248.536	29.3967	122.067
2.61	248.506	29.5061	121.988
2.6125	248.475	29.6158	121.91
2.615	248.443	29.7259	121.831
2.6175	248.41	29.8364	121.754
2.62	248.376	29.9473	121.676
2.6225	248.342	30.0586	121.599
2.625	248.307	30.1703	121.522
2.6275	248.271	30.2823	121.446
2.63	248.235	30.3948	121.37
2.6325	248.198	30.5076	121.295
2.635	248.16	30.6208	121.22
2.6375	248.121	30.7345	121.145
2.64	248.081	30.8485	121.07
2.6425	248.041	30.9629	120.996
2.645	248	31.0776	120.923
2.6475	247.958	31.1928	120.849
2.65	247.915	31.3084	120.777
2.6525	247.872	31.4244	120.704
2.655	247.827	31.5407	120.632
2.6575	247.782	31.6575	120.56
2.66	247.737	31.7747	120.489
2.6625	247.69	31.8922	120.418
2.665	247.643	32.0102	120.347
2.6675	247.594	32.1285	120.277
2.67	247.546	32.2473	120.207
2.6725	247.496	32.3664	120.138
2.675	247.445	32.486	120.069
2.6775	247.394	32.6059	120
2.68	247.342	32.7263	119.932
2.6825	247.289	32.847	119.864
2.685	247.236	32.9682	119.796
2.6875	247.181	33.0897	119.729
2.69	247.126	33.2117	119.662
2.6925	247.07	33.334	119.596
2.695	247.013	33.4568	119.53
2.6975	246.956	33.58	119.464
2.7	246.897	33.7035	119.399
2.7025	246.838	33.8275	119.335
2.705	246.778	33.9519	119.27
2.7075	246.717	34.0767	119.206
2.71	246.656	34.2019	119.142
2.7125	246.593	34.3275	119.079
2.715	246.53	34.4535	119.016
2.7175	246.466	34.5799	118.954
2.72	246.401	34.7067	118.892
2.7225	246.336	34.834	118.83
2.725	246.269	34.9616	118.769
2.7275	246.202	35.0896	118.708
2.73	246.134	35.2181	118.648
2.7325	246.065	35.347	118.588
2.735	245.996	35.4763	118.528
2.7375	245.925	35.6059	118.469
2.74	245.854	35.736	118.41
2.7425	245.782	35.8666	118.351
2.745	245.709	35.9975	118.293
2.7475	245.636	36.1288	118.236
2.75	245.561	36.2606	118.178
2.7525	245.486	36.3927	118.121
2.755	245.41	36.5253	118.065
2.7575	245.333	36.6583	118.009
2.76	245.255	36.7917	117.953
2.7625	245.177	36.9255	117.898
2.765	245.097	37.0597	117.843
2.7675	245.017	37.1944	117.789
2.77	244.936	37.3294	117.735
2.7725	244.854	37.4649	117.681
2.775	244.771	37.6007	117.628
2.7775	244.688	37.737	117.575
2.78	244.604	37.8738	117.523
2.7825	244.519	38.0109	117.471
2.785	244.433	38.1484	117.419
2.7875	244.346	38.2864	117.368
2.79	244.258	38.4247	117.317
2.7925	244.17	38.5635	117.267
2.795	244.081	38.7027	117.217
2.7975	243.991	38.8423	117.167
2.8	243.9	38.9824	117.118
2.8025	243.808	39.1228	117.069
2.805	243.716	39.2637	117.021
2.8075	243.622	39.405	116.973
2.81	243.528	39.5467	116.925
2.8125	243.433	39.6888	116.878
2.815	243.337	39.8313	116.832
2.8175	243.24	39.9742	116.785
2.82	243.143	40.1176	116.74
2.8225	243.045	40.2614	116.694
2.825	242.945	40.4055	116.649
2.8275	242.845	40.5501	116.605
2.83	242.744	40.6952	116.56
2.8325	242.643	40.8406	116.517
2.835	242.54	40.9864	116.473
2.8375	242.437	41.1327	116.43
2.84	242.333	41.2794	116.388
2.8425	242.228	41.4265	116.346
2.845	242.122	41.574	116.304
2.8475	242.015	41.7219	116.263
2.85	241.908	41.8702	116.222
2.8525	241.799	42.019	116.182
2.855	241.69	42.1682	116.142
2.8575	241.58	42.3177	116.102
2.86	241.469	42.4677	116.063
2.8625	241.358	42.6181	116.024
2.865	241.245	42.7689	115.986
2.8675	241.132	42.9202	115.948
2.87	241.017	43.0718	115.911
2.8725	240.902	43.2239	115.874
2.875	240.786	43.3763	115.837
2.8775	240.67	43.5292	115.801
2.88	240.552	43.6825	115.765
2.8825	240.434	43.8362	115.73
2.885	240.314	43.9903	115.695
2.8875	240.194	44.1448	115.661
2.89	240.073	44.2997	115.627
2.8925	239.952	44.4551	115.593
2.895	239.829	44.6108	115.56
2.8975	239.706	44.767	115.527
2.9	239.581	44.9235	115.495
2.9025	239.456	45.0805	115.463
2.905	239.33	45.2379	115.432
2.9075	239.203	45.3956	115.401
2.91	239.076	45.5538	115.37
2.9125	238.947	45.7124	115.34
2.915	238.818	45.8714	115.311
2.9175	238.688	46.0308	115.281
2.92	238.557	46.1906	115.253
2.9225	238.425	46.3508	115.224
2.925	238.292	46.5114	115.196
2.9275	238.159	46.6724	115.169
2.93	238.025	46.8338	115.142
2.9325	237.889	46.9956	115.115
2.935	237.753	47.1578	115.089
2.9375	237.616	47.3204	115.063
2.94	237.479	47.4834	115.038
2.9425	237.34	47.6468	115.013
2.945	237.201	47.8106	114.988
2.9475	237.061	47.9748	114.964
2.95	236.92	48.1394	114.941
2.9525	236.778	48.3044	114.918
2.955	236.635	48.4697	114.895
2.9575	236.492	48.6355	114.873
2.96	236.347	48.8017	114.851
2.9625	236.202	48.9682	114.83
2.965	236.056	49.1351	114.809
2.9675	235.909	49.3025	114.788
2.97	235.761	49.4702	114.768
2.9725	235.613	49.6383	114.749
2.975	235.463	49.8067	114.73
2.9775	235.313	49.9756	114.711
2.98	235.162	50.1449	114.693
2.9825	235.01	50.3145	114.675
2.985	234.858	50.4845	114.658
2.9875	234.704	50.6549	114.641
2.99	234.55	50.8257	114.624
2.9925	234.395	50.9968	114.608
2.995	234.239	51.1684	114.593
2.9975	234.082	51.3403	114.578
3	233.924	51.5126	114.563
3.0025	233.766	51.6852	114.549
3.005	233.607	51.8582	114.535
3.0075	233.446	52.0316	114.522
3.01	233.286	52.2054	114.509
3.0125	233.124	52.3795	114.497
3.015	232.961	52.5541	114.485
3.0175	232.798	52.7289	114.473
3.02	232.634	52.9042	114.462
3.0225	232.469	53.0798	114.452
3.025	232.303	53.2557	114.441
3.0275	232.136	53.4321	114.432
3.03	231.969	53.6088	114.423
3.0325	231.8	53.7858	114.414
3.035	231.631	53.9632	114.405
3.0375	231.461	54.141	114.398
3.04	231.291	54.3191	114.39
3.0425	231.119	54.4975	114.383
3.045	230.947	54.6764	114.377
3.0475	230.774	54.8555	114.371
3.05	230.6	55.035	114.365
3.0525	230.425	55.2149	114.36
3.055	230.25	55.3951	114.355
3.0575	230.073	55.5757	114.351
3.06	229.896	55.7566	114.347
3.0625	229.718	55.9378	114.344
3.065	229.54	56.1194	114.341
3.0675	229.36	56.3013	114.339
3.07	229.18	56.4835	114.337
3.0725	228.999	56.6661	114.335
3.075	228.817	56.849	114.334
3.0775	228.634	57.0323	114.334
3.08	228.451	57.2158	114.334
3.0825	228.266	57.3997	114.334
3.085	228.081	57.584	114.335
3.0875	227.896	57.7685	114.336
3.09	227.709	57.9534	114.338
3.0925	227.522	58.1386	114.34
3.095	227.333	58.3241	114.343
3.0975	227.144	58.5099	114.346
3.1	226.955	58.696	114.349
3.1025	226.764	58.8825	114.353
3.105	226.573	59.0692	114.358
3.1075	226.381	59.2563	114.363
3.11	226.188	59.4437	114.368
3.1125	225.995	59.6314	114.374
3.115	225.8	59.8193	114.38
3.1175	225.605	60.0076	114.387
3.12	225.409	60.1962	114.394
3.1225	225.213	60.3851	114.402
3.125	225.015	60.5743	114.41
3.1275	224.817	60.7637	114.419
3.13	224.618	60.9535	114.428
3.1325	224.419	61.1435	114.438
3.135	224.218	61.3338	114.448
3.1375	224.017	61.5244	114.458
3.14	223.815	61.7153	114.469
3.1425	223.613	61.9065	114.481
3.145	223.41	62.098	114.493
3.1475	223.205	62.2897	114.505
3.15	223.001	62.4817	114.518
3.1525	222.795	62.674	114.531
3.155	222.589	62.8665	114.545
3.1575	222.382	63.0593	114.559
3.16	222.174	63.2524	114.574
3.1625	221.966	63.4457	114.589
3.165	221.756	63.6393	114.604
3.1675	221.546	63.8331	114.62
3.17	221.336	64.0272	114.637
3.1725	221.124	64.2215	114.654
3.175	220.912	64.4161	114.671
3.1775	220.7	64.611	114.689
3.18	220.486	64.8061	114.708
3.1825	220.272	65.0014	114.727
3.185	220.057	65.197	114.746
3.1875	219.841	65.3928	114.766
3.19	219.625	65.5888	114.786
3.1925	219.408	65.7851	114.807
3.195	219.19	65.9816	114.828
3.1975	218.972	66.1783	114.85
3.2	218.753	66.3752	114.872
3.2025	218.533	66.5724	114.894
3.205	218.313	66.7698	114.917
3.2075	218.092	66.9674	114.941
3.21	217.87	67.1652	114.965
3.2125	217.648	67.3632	114.989
3.215	217.424	67.5614	115.014
3.2175	217.201	67.7599	115.04
3.22	216.976	67.9585	115.065
3.2225	216.751	68.1574	115.092
3.225	216.525	68.3564	115.118
3.2275	216.299	68.5556	115.146
3.23	216.072	68.755	115.173
3.2325	215.844	68.9546	115.202
3.235	215.615	69.1544	115.23
3.2375	215.386	69.3544	115.259
3.24	215.157	69.5546	115.289
3.2425	214.926	69.7549	115.319
3.245	214.695	69.9554	115.349
3.2475	214.464	70.1561	115.38
3.25	214.232	70.3569	115.412
3.2525	213.999	70.5579	115.443
3.255	213.765	70.7591	115.476
3.2575	213.531	70.9604	115.509
3.26	213.296	71.1619	115.542
3.2625	213.061	71.3635	115.575
3.265	212.825	71.5653	115.61
3.2675	212.588	71.7672	115.644
3.27	212.351	71.9693	115.679
3.2725	212.114	72.1715	115.715
3.275	211.875	72.3739	115.751
3.2775	211.636	72.5764	115.787
3.28	211.397	72.779	115.824
3.2825	211.156	72.9817	115.862
3.285	210.916	73.1846	115.9
3.2875	210.674	73.3876	115.938
3.29	210.433	73.5907	115.977
3.2925	210.19	73.7939	116.016
3.295	209.947	73.9973	116.056
3.2975	209.703	74.2007	116.096
3.3	209.459	74.4043	116.136
3.3025	209.215	74.6079	116.177
3.305	208.969	74.8117	116.219
3.3075	208.723	75.0156	116.261
3.31	208.477	75.2195	116.303
3.3125	208.23	75.4235	116.346
3.315	207.983	75.6277	116.39
3.3175	207.735	75.8319	116.433
3.32	207.486	76.0361	116.478
3.3225	207.237	76.2405	116.522
3.325	206.987	76.4449	116.568
3.3275	206.737	76.6494	116.613
3.33	206.487	76.854	116.659
3.3325	206.235	77.0586	116.706
3.335	205.984	77.2633	116.753
3.3375	205.732	77.4681	116.8
3.34	205.479	77.6729	116.848
3.3425	205.226	77.8777	116.897
3.345	204.972	78.0826	116.945
3.3475	204.718	78.2875	116.995
3.35	204.463	78.4925	117.044
3.3525	204.208	78.6975	117.094
3.355	203.952	78.9025	117.145
3.3575	203.696	79.1076	117.196
3.36	203.44	79.3127	117.248
3.3625	203.183	79.5178	117.3
3.365	202.925	79.7229	117.352
3.3675	202.667	79.9281	117.405
3.37	202.409	80.1332	117.458
3.3725	202.15	80.3384	117.512
3.375	201.89	80.5436	117.566
3.3775	201.631	80.7487	117.621
3.38	201.37	80.9539	117.676
3.3825	201.11	81.159	117.731
3.385	200.849	81.3642	117.787
3.3875	200.587	81.5693	117.844
3.39	200.325	81.7744	117.9
3.3925	200.063	81.9795	117.958
3.395	199.8	82.1846	118.015
3.3975	199.537	82.3896	118.074
3.4	199.273	82.5946	118.132
3.4025	199.009	82.7996	118.191
3.405	198.745	83.0045	118.251
3.4075	198.48	83.2094	118.311
3.41	198.215	83.4142	118.371
3.4125	197.949	83.619	118.432
3.415	197.683	83.8238	118.493
3.4175	197.417	84.0284	118.555
3.42	197.15	84.2331	118.617
3.4225	196.883	84.4376	118.679
3.425	196.616	84.6421	118.742
3.4275	196.348	84.8465	118.806
3.43	196.08	85.0508	118.869
3.4325	195.811	85.2551	118.934
3.435	195.542	85.4592	118.998
3.4375	195.273	85.6633	119.064
3.44	195.004	85.8673	119.129
3.4425	194.734	86.0712	119.195
3.445	194.464	86.275	119.261
3.4475	194.193	86.4787	119.328
3.45	193.922	86.6823	119.395
3.4525	193.651	86.8858	119.463
3.455	193.38	87.0891	119.531
3.4575	193.108	87.2924	119.6
3.46	192.836	87.4955	119.669
3.4625	192.563	87.6985	119.738
3.465	192.291	87.9014	119.808
3.4675	192.018	88.1041	119.878
3.47	191.745	88.3067	119.949
3.4725	191.471	88.5092	120.02
3.475	191.197	88.7115	120.091
3.4775	190.923	88.9137	120.163
3.48	190.649	89.1158	120.235
3.4825	190.374	89.3176	120.308
3.485	190.099	89.5194	120.381
3.4875	189.824	89.7209	120.455
3.49	189.549	89.9223	120.529
3.4925	189.273	90.1235	120.603
3.495	188.998	90.3246	120.678
3.4975	188.722	90.5255	120.753
3.5	188.445	90.7262	120.828
3.5025	188.169	90.9267	120.904
3.505	187.892	91.127	120.981
3.5075	187.615	91.3272	121.058
3.51	187.338	91.5271	121.135
3.5125	187.061	91.7269	121.212
3.515	186.783	91.9264	121.29
3.5175	186.505	92.1257	121.369
3.52	186.227	92.3249	121.448
3.5225	185.949	92.5238	121.527
3.525	185.671	92.7225	121.606
3.5275	185.393	92.921	121.686
3.53	185.114	93.1192	121.767
3.5325	184.835	93.3172	121.848
3.535	184.556	93.515	121.929
3.5375	184.277	93.7126	122.01
3.54	183.998	93.9099	122.092
3.5425	183.718	94.107	122.175
3.545	183.439	94.3039	122.257
3.5475	183.159	94.5004	122.341
3.55	182.879	94.6968	122.424
3.5525	182.599	94.8929	122.508
3.555	182.319	95.0887	122.592
3.5575	182.039	95.2842	122.677
3.56	181.758	95.4795	122.762
3.5625	181.478	95.6746	122.847
3.565	181.197	95.8693	122.933
3.5675	180.917	96.0638	123.019
3.57	180.636	96.258	123.106
3.5725	180.355	96.4519	123.193
3.575	180.074	96.6455	123.28
3.5775	179.793	96.8388	123.368
3.58	179.512	97.0318	123.456
3.5825	179.231	97.2246	123.545
3.585	178.95	97.417	123.633
3.5875	178.668	97.6091	123.723
3.59	178.387	97.8009	123.812
3.5925	178.106	97.9924	123.902
3.595	177.824	98.1836	123.992
3.5975	177.543	98.3745	124.083
3.6	177.261	98.565	124.174
3.6025	176.979	98.7552	124.265
3.605	176.698	98.9451	124.357
3.6075	176.416	99.1347	124.449
3.61	176.134	99.3239	124.542
3.6125	175.853	99.5128	124.634
3.615	175.571	99.7013	124.728
3.6175	175.289	99.8895	124.821
3.62	175.008	100.077	124.915
3.6225	174.726	100.265	125.009
3.625	174.444	100.452	125.104
3.6275	174.163	100.639	125.199
3.63	173.881	100.825	125.294
3.6325	173.599	101.011	125.39
3.635	173.318	101.197	125.486
3.6375	173.036	101.382	125.582
3.64	172.754	101.567	125.679
3.6425	172.473	101.752	125.776
3.645	172.191	101.936	125.873
3.6475	171.91	102.12	125.971
3.65	171.628	102.303	126.069
3.6525	171.347	102.486	126.167
3.655	171.066	102.669	126.266
3.6575	170.785	102.851	126.365
3.66	170.504	103.033	126.464
3.6625	170.222	103.214	126.564
3.665	169.941	103.395	126.664
3.6675	169.661	103.576	126.764
3.67	169.38	103.756	126.865
3.6725	169.099	103.935	126.965
3.675	168.818	104.115	127.067
3.6775	168.538	104.294	127.168
3.68	168.257	104.472	127.27
3.6825	167.977	104.65	127.373
3.685	167.697	104.828	127.475
3.6875	167.417	105.005	127.578
3.69	167.137	105.182	127.681
3.6925	166.857	105.358	127.785
3.695	166.577	105.534	127.889
3.6975	166.298	105.71	127.993
3.7	166.018	105.884	128.097
3.7025	165.739	106.059	128.202
3.705	165.46	106.233	128.307
3.7075	165.181	106.407	128.412
3.71	164.902	106.58	128.518
3.7125	164.624	106.753	128.624
3.715	164.345	106.925	128.73
3.7175	164.067	107.097	128.837
3.72	163.789	107.268	128.944
3.7225	163.511	107.439	129.051
3.725	163.233	107.609	129.158
3.7275	162.955	107.779	129.266
3.73	162.678	107.948	129.374
3.7325	162.401	108.117	129.482
3.735	162.124	108.286	129.591
3.7375	161.847	108.454	129.7
3.74	161.57	108.621	129.809
3.7425	161.294	108.788	129.918
3.745	161.018	108.954	130.028
3.7475	160.742	109.12	130.138
3.75	160.466	109.286	130.248
3.7525	160.191	109.451	130.359
3.755	159.915	109.615	130.469
3.7575	159.64	109.779	130.581
3.76	159.365	109.943	130.692
3.7625	159.091	110.106	130.804
3.765	158.817	110.268	130.915
3.7675	158.543	110.43	131.028
3.77	158.269	110.591	131.14
3.7725	157.995	110.752	131.253
3.775	157.722	110.912	131.366
3.7775	157.449	111.072	131.479
3.78	157.176	111.231	131.592
3.7825	156.904	111.39	131.706
3.785	156.632	111.548	131.82
3.7875	156.36	111.706	131.934
3.79	156.088	111.863	132.049
3.7925	155.817	112.02	132.163
3.795	155.546	112.176	132.278
3.7975	155.275	112.331	132.394
3.8	155.005	112.486	132.509
3.8025	154.735	112.641	132.625
3.805	154.465	112.794	132.741
3.8075	154.195	112.948	132.857
3.81	153.926	113.1	132.973
3.8125	153.657	113.253	133.09
3.815	153.389	113.404	133.207
3.8175	153.121	113.555	133.324
3.82	152.853	113.706	133.441
3.8225	152.585	113.856	133.559
3.825	152.318	114.005	133.677
3.8275	152.051	114.154	133.795
3.83	151.785	114.302	133.913
3.8325	151.518	114.45	134.031
3.835	151.253	114.597	134.15
3.8375	150.987	114.744	134.269
3.84	150.722	114.89	134.388
3.8425	150.457	115.035	134.508
3.845	150.193	115.18	134.627
3.8475	149.929	115.324	134.747
3.85	149.665	115.468	134.867
3.8525	149.402	115.611	134.987
3.855	149.139	115.753	135.107
3.8575	148.877	115.895	135.228
3.86	148.615	116.037	135.349
3.8625	148.353	116.177	135.47
3.865	148.091	116.318	135.591
3.8675	147.83	116.457	135.712
3.87	147.57	116.596	135.834
3.8725	147.31	116.734	135.956
3.875	147.05	116.872	136.078
3.8775	146.791	117.009	136.2
3.88	146.532	117.146	136.322
3.8825	146.273	117.282	136.445
3.885	146.015	117.417	136.568
3.8875	145.757	117.552	136.691
3.89	145.5	117.686	136.814
3.8925	145.243	117.82	136.937
3.895	144.987	117.953	137.06
3.8975	144.731	118.085	137.184
3.9	144.475	118.217	137.308
3.9025	144.22	118.348	137.432
3.905	143.965	118.478	137.556
3.9075	143.711	118.608	137.68
3.91	143.457	118.738	137.805
3.9125	143.204	118.866	137.93
3.915	142.951	118.994	138.054
3.9175	142.699	119.122	138.179
3.92	142.447	119.249	138.305
3.9225	142.195	119.375	138.43
3.925	141.944	119.501	138.555
3.9275	141.693	119.626	138.681
3.93	141.443	119.75	138.807
3.9325	141.193	119.874	138.933
3.935	140.944	119.997	139.059
3.9375	140.695	120.119	139.185
3.94	140.447	120.241	139.311
3.9425	140.199	120.363	139.438
3.945	139.952	120.483	139.565
3.9475	139.705	120.603	139.692
3.95	139.459	120.723	139.819
3.9525	139.213	120.841	139.946
3.955	138.968	120.96	140.073
3.9575	138.723	121.077	140.2
3.96	138.478	121.194	140.328
3.9625	138.234	121.31	140.455
3.965	137.991	121.426	140.583
3.9675	137.748	121.541	140.711
3.97	137.506	121.655	140.839
3.9725	137.264	121.769	140.967
3.975	137.022	121.882	141.096
3.9775	136.781	121.995	141.224
3.98	136.541	122.107	141.352
3.9825	136.301	122.218	141.481
3.985	136.062	122.328	141.61
3.9875	135.823	122.438	141.739
3.99	135.585	122.548	141.868
3.9925	135.347	122.656	141.997
3.995	135.11	122.764	142.126
3.9975	134.873	122.872	142.255
4	134.637	122.979	142.385
4.0025	134.401	123.085	142.514
4.005	134.166	123.19	142.644
4.0075	133.931	123.295	142.774
4.01	133.697	123.4	142.903
4.0125	133.463	123.503	143.033
4.015	133.23	123.606	143.163
4.0175	132.998	123.709	143.293
4.02	132.766	123.81	143.424
4.0225	132.535	123.911	143.554
4.025	132.304	124.012	143.684
4.0275	132.073	124.112	143.815
4.03	131.844	124.211	143.945
4.0325	131.615	124.31	144.076
4.035	131.386	124.407	144.207
4.0375	131.158	124.505	144.337
4.04	130.93	124.601	144.468
4.0425	130.703	124.697	144.599
4.045	130.477	124.793	144.73
4.0475	130.251	124.888	144.861
4.05	130.026	124.982	144.993
4.0525	129.801	125.075	145.124
4.055	129.577	125.168	145.255
4.0575	129.353	125.26	145.387
4.06	129.13	125.352	145.518
4.0625	128.908	125.443	145.65
4.065	128.686	125.533	145.781
4.0675	128.464	125.623	145.913
4.07	128.243	125.712	146.044
4.0725	128.023	125.801	146.176
4.075	127.804	125.888	146.308
4.0775	127.585	125.976	146.44
4.08	127.366	126.062	146.572
4.0825	127.148	126.148	146.704
4.085	126.931	126.233	146.836
4.0875	126.714	126.318	146.968
4.09	126.498	126.402	147.1
4.0925	126.282	126.485	147.232
4.095	126.067	126.568	147.364
4.0975	125.853	126.65	147.496
4.1	125.639	126.732	147.629
4.1025	125.426	126.813	147.761
4.105	125.213	126.893	147.893
4.1075	125.001	126.973	148.026
4.11	124.79	127.052	148.158
4.1125	124.579	127.13	148.291
4.115	124.369	127.208	148.423
4.1175	124.159	127.285	148.556
4.12	123.95	127.362	148.688
4.1225	123.741	127.438	148.821
4.125	123.533	127.513	148.953
4.1275	123.326	127.588	149.086
4.13	123.119	127.662	149.219
4.1325	122.913	127.735	149.351
4.135	122.708	127.808	149.484
4.1375	122.503	127.881	149.617
4.14	122.299	127.952	149.749
4.1425	122.095	128.023	149.882
4.145	121.892	128.094	150.015
4.1475	121.689	128.163	150.147
4.15	121.487	128.233	150.28
4.1525	121.286	128.301	150.413
4.155	121.085	128.369	150.546
4.1575	120.885	128.437	150.678
4.16	120.686	128.503	150.811
4.1625	120.487	128.569	150.944
4.165	120.288	128.635	151.077
4.1675	120.091	128.7	151.209
4.17	119.894	128.764	151.342
4.1725	119.697	128.828	151.475
4.175	119.501	128.891	151.607
4.1775	119.306	128.954	151.74
4.18	119.111	129.016	151.873
4.1825	118.917	129.077	152.006
4.185	118.724	129.138	152.138
4.1875	118.531	129.198	152.271
4.19	118.339	129.257	152.404
4.1925	118.147	129.316	152.536
4.195	117.956	129.375	152.669
4.1975	117.766	129.433	152.801
4.2	117.576	129.49	152.934
4.2025	117.387	129.546	153.067
4.205	117.199	129.602	153.199
4.2075	117.011	129.658	153.332
4.21	116.823	129.713	153.464
4.2125	116.637	129.767	153.596
4.215	116.451	129.821	153.729
4.2175	116.265	129.874	153.861
4.22	116.08	129.926	153.994
4.2225	115.896	129.978	154.126
4.225	115.712	130.03	154.258
4.2275	115.529	130.08	154.39
4.23	115.347	130.131	154.523
4.2325	115.165	130.18	154.655
4.235	114.984	130.229	154.787
4.2375	114.803	130.278	154.919
4.24	114.623	130.326	155.051
4.2425	114.444	130.373	155.183
4.245	114.265	130.42	155.315
4.2475	114.087	130.466	155.447
4.25	113.91	130.512	155.579
4.2525	113.733	130.557	155.71
4.255	113.557	130.601	155.842
4.2575	113.381	130.645	155.974
4.26	113.206	130.689	156.105
4.2625	113.031	130.732	156.237
4.265	112.858	130.774	156.368
4.2675	112.684	130.816	156.5
4.27	112.512	130.857	156.631
4.2725	112.34	130.898	156.763
4.275	112.168	130.938	156.894
4.2775	111.998	130.977	157.025
4.28	111.828	131.016	157.156
4.2825	111.658	131.055	157.287
4.285	111.489	131.093	157.418
4.2875	111.321	131.13	157.549
4.29	111.153	131.167	157.68
4.2925	110.986	131.203	157.811
4.295	110.82	131.239	157.941
4.2975	110.654	131.274	158.072
4.3	110.488	131.309	158.203
4.3025	110.324	131.343	158.333
4.305	110.16	131.377	158.464
4.3075	109.996	131.41	158.594
4.31	109.834	131.442	158.724
4.3125	109.671	131.474	158.854
4.315	109.51	131.506	158.984
4.3175	109.349	131.537	159.114
4.32	109.188	131.567	159.244
4.3225	109.029	131.597	159.374
4.325	108.869	131.627	159.504
4.3275	108.711	131.656	159.633
4.33	108.553	131.684	159.763
4.3325	108.395	131.712	159.892
4.335	108.239	131.739	160.022
4.3375	108.083	131.766	160.151
4.34	107.927	131.793	160.28
4.3425	107.772	131.819	160.409
4.345	107.618	131.844	160.538
4.3475	107.464	131.869	160.667
4.35	107.311	131.893	160.796
4.3525	107.158	131.917	160.925
4.355	107.006	131.94	161.053
4.3575	106.855	131.963	161.182
4.36	106.704	131.986	161.31
4.3625	106.554	132.007	161.438
4.365	106.405	132.029	161.567
4.3675	106.256	132.05	161.695
4.37	106.107	132.07	161.823
4.3725	105.959	132.09	161.95
4.375	105.812	132.11	162.078
4.3775	105.666	132.128	162.206
4.38	105.52	132.147	162.333
4.3825	105.374	132.165	162.461
4.385	105.23	132.182	162.588
4.3875	105.085	132.2	162.715
4.39	104.942	132.216	162.842
4.3925	104.799	132.232	162.969
4.395	104.656	132.248	163.096
4.3975	104.514	132.263	163.223
4.4	104.373	132.278	163.349
4.4025	104.232	132.292	163.476
4.405	104.092	132.306	163.602
4.4075	103.953	132.319	163.728
4.41	103.814	132.332	163.854
4.4125	103.676	132.344	163.98
4.415	103.538	132.356	164.106
4.4175	103.401	132.368	164.232
4.42	103.264	132.379	164.357
4.4225	103.128	132.389	164.483
4.425	102.993	132.399	164.608
4.4275	102.858	132.409	164.733
4.43	102.724	132.418	164.858
4.4325	102.59	132.427	164.983
4.435	102.457	132.435	165.108
4.4375	102.324	132.443	165.233
4.44	102.192	132.451	165.357
4.4425	102.061	132.458	165.481
4.445	101.93	132.464	165.606
4.4475	101.8	132.471	165.73
4.45	101.67	132.476	165.854
4.4525	101.541	132.482	165.977
4.455	101.412	132.487	166.101
4.4575	101.284	132.491	166.225
4.46	101.157	132.495	166.348
4.4625	101.03	132.499	166.471
4.465	100.904	132.502	166.594
4.4675	100.778	132.505	166.717
4.47	100.653	132.507	166.84
4.4725	100.528	132.509	166.963
4.475	100.404	132.511	167.085
4.4775	100.281	132.512	167.208
4.48	100.158	132.512	167.33
4.4825	100.036	132.513	167.452
4.485	99.9137	132.513	167.574
4.4875	99.7924	132.512	167.695
4.49	99.6718	132.511	167.817
4.4925	99.5516	132.51	167.938
4.495	99.432	132.508	168.06
4.4975	99.313	132.506	168.181
4.5	99.1945	132.504	168.302
4.5025	99.0766	132.501	168.423
4.505	98.9592	132.498	168.543
4.5075	98.8423	132.494	168.664
4.51	98.726	132.49	168.784
4.5125	98.6103	132.486	168.904
4.515	98.4951	132.481	169.024
4.5175	98.3804	132.476	169.144
4.52	98.2663	132.47	169.264
4.5225	98.1527	132.464	169.383
4.525	98.0396	132.458	169.503
4.5275	97.9271	132.451	169.622
4.53	97.8152	132.444	169.741
4.5325	97.7037	132.437	169.86
4.535	97.5928	132.429	169.978
4.5375	97.4825	132.421	170.097
4.54	97.3726	132.412	170.215
4.5425	97.2633	132.403	170.333
4.545	97.1546	132.394	170.451
4.5475	97.0463	132.384	170.569
4.55	96.9386	132.375	170.687
4.5525	96.8314	132.364	170.804
4.555	96.7248	132.354	170.922
4.5575	96.6187	132.343	171.039
4.56	96.513	132.331	171.156
4.5625	96.408	132.319	171.273
4.565	96.3034	132.307	171.389
4.5675	96.1994	132.295	171.506
4.57	96.0958	132.282	171.622
4.5725	95.9928	132.269	171.738
4.575	95.8903	132.256	171.854
4.5775	95.7883	132.242	171.97
4.58	95.6869	132.228	172.085
4.5825	95.5859	132.214	172.201
4.585	95.4855	132.199	172.316
4.5875	95.3856	132.184	172.431
4.59	95.2862	132.168	172.546
4.5925	95.1872	132.153	172.66
4.595	95.0888	132.136	172.775
4.5975	94.9909	132.12	172.889
4.6	94.8936	132.103	173.003
4.6025	94.7967	132.086	173.117
4.605	94.7003	132.069	173.231
4.6075	94.6044	132.051	173.344
4.61	94.509	132.033	173.458
4.6125	94.4141	132.015	173.571
4.615	94.3197	131.997	173.684
4.6175	94.2258	131.978	173.797
4.62	94.1324	131.958	173.909
4.6225	94.0395	131.939	174.022
4.625	93.9471	131.919	174.134
4.6275	93.8552	131.899	174.246
4.63	93.7638	131.879	174.358
4.6325	93.6728	131.858	174.469
4.635	93.5824	131.837	174.581
4.6375	93.4924	131.816	174.692
4.64	93.4029	131.794	174.803
4.6425	93.3139	131.772	174.914
4.645	93.2254	131.75	175.025
4.6475	93.1373	131.727	175.135
4.65	93.0498	131.705	175.246
4.6525	92.9627	131.682	175.356
4.655	92.8761	131.658	175.466
4.6575	92.79	131.635	175.575
4.66	92.7043	131.611	175.685
4.6625	92.6191	131.587	175.794
4.665	92.5344	131.562	175.903
4.6675	92.4502	131.538	176.012
4.67	92.3664	131.513	176.121
4.6725	92.2831	131.487	176.229
4.675	92.2003	131.462	176.338
4.6775	92.1179	131.436	176.446
4.68	92.036	131.41	176.554
4.6825	91.9546	131.384	176.662
4.685	91.8736	131.357	176.769
4.6875	91.7931	131.331	176.876
4.69	91.713	131.303	176.984
4.6925	91.6334	131.276	177.09
4.695	91.5543	131.249	177.197
4.6975	91.4756	131.221	177.304
4.7	91.3974	131.193	177.41
4.7025	91.3196	131.164	177.516
4.705	91.2423	131.136	177.622
4.7075	91.1654	131.107	177.728
4.71	91.089	131.078	177.833
4.7125	91.013	131.048	177.939
4.715	90.9375	131.019	178.044
4.7175	90.8624	130.989	178.149
4.72	90.7877	130.959	178.253
4.7225	90.7136	130.929	178.358
4.725	90.6398	130.898	178.462
4.7275	90.5665	130.867	178.566
4.73	90.4936	130.836	178.67
4.7325	90.4212	130.805	178.774
4.735	90.3492	130.774	178.877
4.7375	90.2776	130.742	178.98
4.74	90.2064	130.71	179.083
4.7425	90.1357	130.678	179.186
4.745	90.0655	130.646	179.289
4.7475	89.9956	130.613	179.391
4.75	89.9262	130.58	179.493
4.7525	89.8572	130.548	179.595
4.755	89.7887	130.514	179.697
4.7575	89.7205	130.481	179.799
4.76	89.6528	130.447	179.9
4.7625	89.5855	130.413	180.001
4.765	89.5187	130.379	180.102
4.7675	89.4522	130.345	180.203
4.77	89.3862	130.311	180.303
4.7725	89.3206	130.276	180.404
4.775	89.2554	130.241	180.504
4.7775	89.1906	130.206	180.603
4.78	89.1262	130.171	180.703
4.7825	89.0623	130.135	180.803
4.785	88.9987	130.099	180.902
4.7875	88.9356	130.064	181.001
4.79	88.8729	130.028	181.1
4.7925	88.8106	129.991	181.198
4.795	88.7487	129.955	181.297
4.7975	88.6871	129.918	181.395
4.8	88.626	129.881	181.493
4.8025	88.5653	129.844	181.59
4.805	88.505	129.807	181.688
4.8075	88.4451	129.77	181.785
4.81	88.3856	129.732	181.882
4.8125	88.3265	129.694	181.979
4.815	88.2678	129.656	182.076
4.8175	88.2095	129.618	182.172
4.82	88.1515	129.58	182.268
4.8225	88.094	129.542	182.364
4.825	88.0369	129.503	182.46
4.8275	87.9801	129.464	182.556
4.83	87.9237	129.425	182.651
4.8325	87.8678	129.386	182.746
4.835	87.8122	129.347	182.841
4.8375	87.7569	129.307	182.936
4.84	87.7021	129.267	183.03
4.8425	87.6477	129.228	183.125
4.845	87.5936	129.188	183.219
4.8475	87.5399	129.147	183.313
4.85	87.4866	129.107	183.406
4.8525	87.4337	129.067	183.5
4.855	87.3811	129.026	183.593
4.8575	87.3289	128.985	183.686
4.86	87.2771	128.944	183.779
4.8625	87.2257	128.903	183.871
4.865	87.1746	128.862	183.963
4.8675	87.1239	128.821	184.055
4.87	87.0736	128.779	184.147
4.8725	87.0236	128.737	184.239
4.875	86.974	128.696	184.33
4.8775	86.9248	128.654	184.422
4.88	86.8759	128.611	184.513
4.8825	86.8274	128.569	184.603
4.885	86.7793	128.527	184.694
4.8875	86.7315	128.484	184.784
4.89	86.684	128.442	184.874
4.8925	86.637	128.399	184.964
4.895	86.5903	128.356	185.054
4.8975	86.5439	128.313	185.143
4.9	86.4979	128.269	185.233
4.9025	86.4522	128.226	185.322
4.905	86.4069	128.183	185.411
4.9075	86.362	128.139	185.499
4.91	86.3173	128.095	185.588
4.9125	86.2731	128.051	185.676
4.915	86.2292	128.007	185.764
4.9175	86.1856	127.963	185.851
4.92	86.1424	127.919	185.939
4.9225	86.0995	127.875	186.026
4.925	86.0569	127.83	186.113
4.9275	86.0147	127.785	186.2
4.93	85.9729	127.741	186.286
4.9325	85.9313	127.696	186.373
4.935	85.8901	127.651	186.459
4.9375	85.8493	127.606	186.545
4.94	85.8088	127.561	186.631
4.9425	85.7686	127.515	186.716
4.945	85.7287	127.47	186.801
4.9475	85.6892	127.424	186.887
4.95	85.65	127.379	186.971
4.9525	85.6111	127.333	187.056
4.955	85.5726	127.287	187.14
4.9575	85.5343	127.241	187.225
4.96	85.4965	127.195	187.309
4.9625	85.4589	127.149	187.392
4.965	85.4216	127.103	187.476
4.9675	85.3847	127.056	187.559
4.97	85.3481	127.01	187.642
4.9725	85.3118	126.963	187.725
4.975	85.2758	126.916	187.808
4.9775	85.2402	126.87	187.89
4.98	85.2048	126.823	187.972
4.9825	85.1698	126.776	188.054
4.985	85.1351	126.729	188.136
4.9875	85.1007	126.682	188.218
4.99	85.0666	126.634	188.299
4.9925	85.0328	126.587	188.38
4.995	84.9994	126.54	188.461
4.9975	84.9662	126.492	188.542
5	84.9333	126.445	188.622
5.0025	84.9008	126.397	188.702
5.005	84.8685	126.349	188.782
5.0075	84.8366	126.301	188.862
5.01	84.8049	126.253	188.942
5.0125	84.7736	126.205	189.021
5.015	84.7425	126.157	189.1
5.0175	84.7118	126.109	189.179
5.02	84.6814	126.061	189.258
5.0225	84.6512	126.013	189.336
5.025	84.6213	125.964	189.414
5.0275	84.5918	125.916	189.492
5.03	84.5625	125.867	189.57
5.0325	84.5335	125.819	189.648
5.035	84.5048	125.77	189.725
5.0375	84.4764	125.721	189.802
5.04	84.4483	125.672	189.879
5.0425	84.4205	125.623	189.956
5.045	84.3929	125.575	190.033
5.0475	84.3657	125.525	190.109
5.05	84.3387	125.476	190.185
5.0525	84.312	125.427	190.261
5.055	84.2856	125.378	190.336
5.0575	84.2595	125.329	190.412
5.06	84.2336	125.279	190.487
5.0625	84.2081	125.23	190.562
5.065	84.1828	125.18	190.637
5.0675	84.1577	125.131	190.711
5.07	84.133	125.081	190.786
5.0725	84.1085	125.032	190.86
5.075	84.0843	124.982	190.934
5.0775	84.0604	124.932	191.007
5.08	84.0368	124.882	191.081
5.0825	84.0134	124.833	191.154
5.085	83.9903	124.783	191.227
5.0875	83.9674	124.733	191.3
5.09	83.9448	124.683	191.372
5.0925	83.9225	124.633	191.445
5.095	83.9005	124.582	191.517
5.0975	83.8787	124.532	191.589
5.1	83.8572	124.482	191.661
5.1025	83.8359	124.432	191.732
5.105	83.8149	124.382	191.804
5.1075	83.7942	124.331	191.875
5.11	83.7737	124.281	191.946
5.1125	83.7535	124.23	192.016
5.115	83.7335	124.18	192.087
5.1175	83.7138	124.129	192.157
5.12	83.6943	124.079	192.227
5.1225	83.6751	124.028	192.297
5.125	83.6562	123.978	192.366
5.1275	83.6375	123.927	192.436
5.13	83.619	123.876	192.505
5.1325	83.6008	123.825	192.574
5.135	83.5828	123.775	192.643
5.1375	83.5651	123.724	192.711
5.14	83.5477	123.673	192.779
5.1425	83.5304	123.622	192.847
5.145	83.5135	123.571	192.915
5.1475	83.4967	123.52	192.983
5.15	83.4803	123.469	193.05
5.1525	83.464	123.418	193.118
5.155	83.448	123.367	193.185
5.1575	83.4322	123.316	193.252
5.16	83.4167	123.265	193.318
5.1625	83.4014	123.214	193.385
5.165	83.3864	123.163	193.451
5.1675	83.3715	123.112	193.517
5.17	83.3569	123.06	193.583
5.1725	83.3426	123.009	193.648
5.175	83.3285	122.958	193.714
5.1775	83.3146	122.907	193.779
5.18	83.3009	122.855	193.844
5.1825	83.2875	122.804	193.908
5.185	83.2743	122.753	193.973
5.1875	83.2613	122.701	194.037
5.19	83.2486	122.65	194.101
5.1925	83.236	122.599	194.165
5.195	83.2237	122.547	194.229
5.1975	83.2117	122.496	194.292
5.2	83.1998	122.445	194.356
5.2025	83.1882	122.393	194.419
5.205	83.1768	122.342	194.482
5.2075	83.1656	122.29	194.544
5.21	83.1546	122.239	194.607
5.2125	83.1439	122.187	194.669
5.215	83.1333	122.136	194.731
5.2175	83.123	122.084	194.793
5.22	83.1129	122.033	194.854
5.2225	83.103	121.981	194.916
5.225	83.0934	121.93	194.977
5.2275	83.0839	121.878	195.038
5.23	83.0747	121.827	195.099
5.2325	83.0656	121.775	195.159
5.235	83.0568	121.723	195.22
5.2375	83.0482	121.672	195.28
5.24	83.0398	121.62	195.34
5.2425	83.0316	121.569	195.4
5.245	83.0236	121.517	195.459
5.2475	83.0158	121.466	195.519
5.25	83.0082	121.414	195.578
5.2525	83.0008	121.362	195.637
5.255	82.9936	121.311	195.695
5.2575	82.9866	121.259	195.754
5.26	82.9798	121.208	195.812
5.2625	82.9733	121.156	195.871
5.265	82.9669	121.105	195.929
5.2675	82.9607	121.053	195.986
5.27	82.9547	121.001	196.044
5.2725	82.9489	120.95	196.101
5.275	82.9433	120.898	196.158
5.2775	82.9379	120.847	196.215
5.28	82.9327	120.795	196.272
5.2825	82.9277	120.744	196.329
5.285	82.9229	120.692	196.385
5.2875	82.9183	120.641	196.441
5.29	82.9138	120.589	196.497
5.2925	82.9096	120.538	196.553
5.295	82.9055	120.486	196.608
5.2975	82.9017	120.435	196.664
5.3	82.898	120.383	196.719
5.3025	82.8945	120.332	196.774
5.305	82.8912	120.28	196.829
5.3075	82.8881	120.229	196.883
5.31	82.8851	120.177	196.937
5.3125	82.8824	120.126	196.992
5.315	82.8798	120.075	197.046
5.3175	82.8774	120.023	197.099
5.32	82.8752	119.972	197.153
5.3225	82.8731	119.92	197.206
5.325	82.8713	119.869	197.26
5.3275	82.8696	119.818	197.313
5.33	82.8681	119.767	197.365
5.3325	82.8668	119.715	197.418
5.335	82.8656	119.664	197.47
5.3375	82.8646	119.613	197.523
5.34	82.8638	119.561	197.575
5.3425	82.8632	119.51	197.627
5.345	82.8628	119.459	197.678
5.3475	82.8625	119.408	197.73
5.35	82.8624	119.357	197.781
5.3525	82.8624	119.306	197.832
5.355	82.8626	119.255	197.883
5.3575	82.863	119.203	197.934
5.36	82.8636	119.152	197.984
5.3625	82.8643	119.101	198.034
5.365	82.8652	119.05	198.084
5.3675	82.8663	118.999	198.134
5.37	82.8675	118.948	198.184
5.3725	82.8689	118.897	198.234
5.375	82.8704	118.847	198.283
5.3775	82.8722	118.796	198.332
5.38	82.874	118.745	198.381
5.3825	82.8761	118.694	198.43
5.385	82.8783	118.643	198.479
5.3875	82.8806	118.592	198.527
5.39	82.8831	118.542	198.575
5.3925	82.8858	118.491	198.623
5.395	82.8886	118.44	198.671
5.3975	82.8916	118.39	198.719
5.4	82.8947	118.339	198.766
5.4025	82.898	118.288	198.814
5.405	82.9015	118.238	198.861
5.4075	82.9051	118.187	198.908
5.41	82.9088	118.137	198.954
5.4125	82.9127	118.086	199.001
5.415	82.9168	118.036	199.047
5.4175	82.921	117.986	199.093
5.42	82.9254	117.935	199.139
5.4225	82.9299	117.885	199.185
5.425	82.9345	117.835	199.231
5.4275	82.9393	117.784	199.276
5.43	82.9443	117.734	199.322
5.4325	82.9493	117.684	199.367
5.435	82.9546	117.634	199.412
5.4375	82.96	117.584	199.456
5.44	82.9655	117.534	199.501
5.4425	82.9711	117.484	199.545
5.445	82.977	117.434	199.589
5.4475	82.9829	117.384	199.633
5.45	82.989	117.334	199.677
5.4525	82.9952	117.284	199.721
5.455	83.0016	117.234	199.764
5.4575	83.0081	117.184	199.808
5.46	83.0148	117.134	199.851
5.4625	83.0215	117.085	199.894
5.465	83.0285	117.035	199.936
5.4675	83.0355	116.985	199.979
5.47	83.0427	116.936	200.021
5.4725	83.05	116.886	200.064
5.475	83.0575	116.837	200.106
5.4775	83.0651	116.787	200.148
5.48	83.0728	116.738	200.189
5.4825	83.0807	116.688	200.231
5.485	83.0887	116.639	200.272
5.4875	83.0968	116.59	200.313
5.49	83.105	116.541	200.354
5.4925	83.1134	116.491	200.395
5.495	83.1219	116.442	200.436
5.4975	83.1306	116.393	200.476
5.5	83.1393	116.344	200.517
5.5025	83.1482	116.295	200.557
5.505	83.1572	116.246	200.597
5.5075	83.1664	116.197	200.636
5.51	83.1756	116.148	200.676
5.5125	83.185	116.099	200.716
5.515	83.1945	116.051	200.755
5.5175	83.2042	116.002	200.794
5.52	83.2139	115.953	200.833
5.5225	83.2238	115.905	200.872
5.525	83.2338	115.856	200.91
5.5275	83.2439	115.807	200.949
5.53	83.2542	115.759	200.987
5.5325	83.2645	115.711	201.025
5.535	83.275	115.662	201.063
5.5375	83.2856	115.614	201.101
5.54	83.2963	115.566	201.138
5.5425	83.3071	115.517	201.176
5.545	83.3181	115.469	201.213
5.5475	83.3291	115.421	201.25
5.55	83.3403	115.373	201.287
5.5525	83.3516	115.325	201.323
5.555	83.363	115.277	201.36
5.5575	83.3745	115.229	201.396
5.56	83.3861	115.181	201.433
5.5625	83.3979	115.133	201.469
5.565	83.4097	115.086	201.505
5.5675	83.4217	115.038	201.54
5.57	83.4337	114.99	201.576
5.5725	83.4459	114.943	201.611
5.575	83.4582	114.895	201.647
5.5775	83.4706	114.848	201.682
5.58	83.4831	114.8	201.717
5.5825	83.4957	114.753	201.752
5.585	83.5084	114.705	201.786
5.5875	83.5212	114.658	201.821
5.59	83.5341	114.611	201.855
5.5925	83.5471	114.564	201.889
5.595	83.5603	114.517	201.923
5.5975	83.5735	114.47	201.957
5.6	83.5868	114.423	201.99
5.6025	83.6002	114.376	202.024
5.605	83.6138	114.329	202.057
5.6075	83.6274	114.282	202.09
5.61	83.6411	114.235	202.123
5.6125	83.655	114.189	202.156
5.615	83.6689	114.142	202.189
5.6175	83.6829	114.096	202.222
5.62	83.6971	114.049	202.254
5.6225	83.7113	114.003	202.286
5.625	83.7256	113.956	202.318
5.6275	83.74	113.91	202.35
5.63	83.7546	113.864	202.382
5.6325	83.7692	113.817	202.414
5.635	83.7839	113.771	202.445
5.6375	83.7987	113.725	202.476
5.64	83.8136	113.679	202.507
5.6425	83.8286	113.633	202.538
5.645	83.8436	113.587	202.569
5.6475	83.8588	113.541	202.6
5.65	83.8741	113.496	202.63
5.6525	83.8894	113.45	202.661
5.655	83.9048	113.404	202.691
5.6575	83.9204	113.359	202.721
5.66	83.936	113.313	202.751
5.6625	83.9517	113.268	202.781
5.665	83.9675	113.222	202.81
5.6675	83.9834	113.177	202.84
5.67	83.9993	113.131	202.869
5.6725	84.0154	113.086	202.898
5.675	84.0315	113.041	202.927
5.6775	84.0478	112.996	202.956
5.68	84.0641	112.951	202.985
5.6825	84.0805	112.906	203.014
5.685	84.097	112.861	203.042
5.6875	84.1135	112.816	203.07
5.69	84.1302	112.771	203.098
5.6925	84.1469	112.727	203.126
5.695	84.1637	112.682	203.154
5.6975	84.1806	112.638	203.182
5.7	84.1976	112.593	203.209
5.7025	84.2146	112.549	203.237
5.705	84.2317	112.504	203.264
5.7075	84.2489	112.46	203.291
5.71	84.2662	112.416	203.318
5.7125	84.2836	112.371	203.345
5.715	84.301	112.327	203.372
5.7175	84.3186	112.283	203.398
5.72	84.3362	112.239	203.425
5.7225	84.3538	112.195	203.451
5.725	84.3716	112.152	203.477
5.7275	84.3894	112.108	203.503
5.73	84.4073	112.064	203.529
5.7325	84.4253	112.02	203.554
5.735	84.4433	111.977	203.58
5.7375	84.4614	111.933	203.605
5.74	84.4796	111.89	203.631
5.7425	84.4979	111.846	203.656
5.745	84.5162	111.803	203.681
5.7475	84.5346	111.76	203.705
5.75	84.5531	111.717	203.73
5.7525	84.5717	111.674	203.755
5.755	84.5903	111.631	203.779
5.7575	84.609	111.588	203.803
5.76	84.6277	111.545	203.828
5.7625	84.6466	111.502	203.852
5.765	84.6654	111.459	203.875
5.7675	84.6844	111.416	203.899
5.77	84.7034	111.374	203.923
5.7725	84.7225	111.331	203.946
5.775	84.7417	111.289	203.97
5.7775	84.7609	111.246	203.993
5.78	84.7802	111.204	204.016
5.7825	84.7996	111.162	204.039
5.785	84.819	111.119	204.062
5.7875	84.8385	111.077	204.084
5.79	84.858	111.035	204.107
5.7925	84.8776	110.993	204.129
5.795	84.8973	110.951	204.151
5.7975	84.917	110.909	204.173
5.8	84.9368	110.868	204.195
5.8025	84.9567	110.826	204.217
5.805	84.9766	110.784	204.239
5.8075	84.9966	110.743	204.261
5.81	85.0166	110.701	204.282
5.8125	85.0367	110.66	204.303
5.815	85.0568	110.618	204.325
5.8175	85.0771	110.577	204.346
5.82	85.0973	110.536	204.367
5.8225	85.1177	110.495	204.388
5.825	85.138	110.454	204.408
5.8275	85.1585	110.413	204.429
5.83	85.179	110.372	204.449
5.8325	85.1995	110.331	204.469
5.835	85.2202	110.29	204.49
5.8375	85.2408	110.249	204.51
5.84	85.2615	110.209	204.53
5.8425	85.2823	110.168	204.549
5.845	85.3031	110.128	204.569
5.8475	85.324	110.087	204.589
5.85	85.345	110.047	204.608
5.8525	85.366	110.007	204.627
5.855	85.387	109.966	204.647
5.8575	85.4081	109.926	204.666
5.86	85.4292	109.886	204.685
5.8625	85.4504	109.846	204.703
5.865	85.4717	109.806	204.722
5.8675	85.493	109.767	204.741
5.87	85.5143	109.727	204.759
5.8725	85.5357	109.687	204.777
5.875	85.5571	109.647	204.795
5.8775	85.5786	109.608	204.814
5.88	85.6002	109.568	204.831
5.8825	85.6218	109.529	204.849
5.885	85.6434	109.49	204.867
5.8875	85.6651	109.45	204.885
5.89	85.6868	109.411	204.902
5.8925	85.7086	109.372	204.919
5.895	85.7304	109.333	204.937
5.8975	85.7523	109.294	204.954
5.9	85.7742	109.255	204.971
5.9025	85.7961	109.216	204.988
5.905	85.8181	109.178	205.004
5.9075	85.8402	109.139	205.021
5.91	85.8622	109.1	205.037
5.9125	85.8844	109.062	205.054
5.915	85.9065	109.023	205.07
5.9175	85.9288	108.985	205.086
5.92	85.951	108.947	205.102
5.9225	85.9733	108.908	205.118
5.925	85.9956	108.87	205.134
5.9275	86.018	108.832	205.15
5.93	86.0404	108.794	205.165
5.9325	86.0629	108.756	205.181
5.935	86.0854	108.718	205.196
5.9375	86.1079	108.681	205.211
5.94	86.1305	108.643	205.227
5.9425	86.1531	108.605	205.242
5.945	86.1758	108.568	205.256
5.9475	86.1985	108.53	205.271
5.95	86.2212	108.493	205.286
5.9525	86.244	108.456	205.301
5.955	86.2668	108.418	205.315
5.9575	86.2896	108.381	205.329
5.96	86.3125	108.344	205.344
5.9625	86.3354	108.307	205.358
5.965	86.3583	108.27	205.372
5.9675	86.3813	108.233	205.386
5.97	86.4043	108.196	205.399
5.9725	86.4274	108.16	205.413
5.975	86.4505	108.123	205.427
5.9775	86.4736	108.086	205.44
5.98	86.4967	108.05	205.453
5.9825	86.5199	108.013	205.467
5.985	86.5432	107.977	205.48
5.9875	86.5664	107.941	205.493
5.99	86.5897	107.904	205.506
5.9925	86.613	107.868	205.519
5.995	86.6363	107.832	205.531
5.9975	86.6597	107.796	205.544
6	86.6831	107.76	205.557
6.0025	86.7066	107.725	205.569
6.005	86.73	107.689	205.581
6.0075	86.7535	107.653	205.593
6.01	86.777	107.617	205.606
6.0125	86.8006	107.582	205.617
6.015	86.8242	107.546	205.629
6.0175	86.8478	107.511	205.641
6.02	86.8714	107.476	205.653
6.0225	86.8951	107.441	205.664
6.025	86.9188	107.405	205.676
6.0275	86.9425	107.37	205.687
6.03	86.9662	107.335	205.698
6.0325	86.99	107.3	205.71
6.035	87.0138	107.265	205.721
6.0375	87.0376	107.231	205.732
6.04	87.0615	107.196	205.743
6.0425	87.0854	107.161	205.753
6.045	87.1093	107.127	205.764
6.0475	87.1332	107.092	205.775
6.05	87.1571	107.058	205.785
6.0525	87.1811	107.024	205.795
6.055	87.2051	106.989	205.806
6.0575	87.2291	106.955	205.816
6.06	87.2532	106.921	205.826
6.0625	87.2772	106.887	205.836
6.065	87.3013	106.853	205.846
6.0675	87.3254	106.819	205.855
6.07	87.3496	106.785	205.865
6.0725	87.3737	106.752	205.875
6.075	87.3979	106.718	205.884
6.0775	87.4221	106.684	205.894
6.08	87.4463	106.651	205.903
6.0825	87.4705	106.617	205.912
6.085	87.4948	106.584	205.921
6.0875	87.519	106.551	205.93
6.09	87.5433	106.518	205.939
6.0925	87.5676	106.484	205.948
6.095	87.592	106.451	205.957
6.0975	87.6163	106.418	205.965
6.1	87.6407	106.385	205.974
6.1025	87.6651	106.353	205.982
6.105	87.6895	106.32	205.991
6.1075	87.7139	106.287	205.999
6.11	87.7383	106.255	206.007
6.1125	87.7628	106.222	206.015
6.115	87.7872	106.19	206.023
6.1175	87.8117	106.157	206.031
6.12	87.8362	106.125	206.039
6.1225	87.8608	106.093	206.047
6.125	87.8853	106.06	206.054
6.1275	87.9098	106.028	206.062
6.13	87.9344	105.996	206.069
6.1325	87.959	105.964	206.077
6.135	87.9836	105.933	206.084
6.1375	88.0082	105.901	206.091
6.14	88.0328	105.869	206.098
6.1425	88.0574	105.837	206.105
6.145	88.0821	105.806	206.112
6.1475	88.1067	105.774	206.119
6.15	88.1314	105.743	206.126
6.1525	88.1561	105.712	206.132
6.155	88.1808	105.68	206.139
6.1575	88.2055	105.649	206.145
6.16	88.2302	105.618	206.152
6.1625	88.2549	105.587	206.158
6.165	88.2796	105.556	206.164
6.1675	88.3044	105.525	206.17
6.17	88.3291	105.494	206.177
6.1725	88.3539	105.464	206.182
6.175	88.3787	105.433	206.188
6.1775	88.4035	105.402	206.194
6.18	88.4283	105.372	206.2
6.1825	88.4531	105.341	206.206
6.185	88.4779	105.311	206.211
6.1875	88.5027	105.281	206.217
6.19	88.5276	105.25	206.222
6.1925	88.5524	105.22	206.227
6.195	88.5773	105.19	206.232
6.1975	88.6021	105.16	206.238
6.2	88.627	105.13	206.243
6.2025	88.6519	105.1	206.248
6.205	88.6767	105.071	206.253
6.2075	88.7016	105.041	206.257
6.21	88.7265	105.011	206.262
6.2125	88.7514	104.982	206.267
6.215	88.7763	104.952	206.271
6.2175	88.8012	104.923	206.276
6.22	88.8261	104.894	206.28
6.2225	88.8511	104.864	206.285
6.225	88.876	104.835	206.289
6.2275	88.9009	104.806	206.293
6.23	88.9259	104.777	206.297
6.2325	88.9508	104.748	206.301
6.235	88.9757	104.719	206.305
6.2375	89.0007	104.69	206.309
6.24	89.0256	104.661	206.313
6.2425	89.0506	104.633	206.317
6.245	89.0755	104.604	206.32
6.2475	89.1005	104.576	206.324
6.25	89.1255	104.547	206.327
6.2525	89.1504	104.519	206.331
6.255	89.1754	104.491	206.334
6.2575	89.2004	104.462	206.337
6.26	89.2253	104.434	206.341
6.2625	89.2503	104.406	206.344
6.265	89.2753	104.378	206.347
6.2675	89.3003	104.35	206.35
6.27	89.3252	104.322	206.353
6.2725	89.3502	104.294	206.355
6.275	89.3752	104.267	206.358
6.2775	89.4002	104.239	206.361
6.28	89.4251	104.211	206.363
6.2825	89.4501	104.184	206.366
6.285	89.4751	104.156	206.368
6.2875	89.5001	104.129	206.371
6.29	89.525	104.102	206.373
6.2925	89.55	104.075	206.375
6.295	89.575	104.047	206.378
6.2975	89.6	104.02	206.38
6.3	89.6249	103.993	206.382
6.3025	89.6499	103.966	206.384
6.305	89.6749	103.939	206.386
6.3075	89.6998	103.913	206.387
6.31	89.7248	103.886	206.389
6.3125	89.7497	103.859	206.391
6.315	89.7747	103.833	206.393
6.3175	89.7996	103.806	206.394
6.32	89.8246	103.78	206.396
6.3225	89.8495	103.753	206.397
6.325	89.8745	103.727	206.398
6.3275	89.8994	103.701	206.4
6.33	89.9243	103.675	206.401
6.3325	89.9493	103.649	206.402
6.335	89.9742	103.623	206.403
6.3375	89.9991	103.597	206.404
6.34	90.024	103.571	206.405
6.3425	90.0489	103.545	206.406
6.345	90.0738	103.519	206.407
6.3475	90.0987	103.494	206.408
6.35	90.1236	103.468	206.408
6.3525	90.1485	103.443	206.409
6.355	90.1734	103.417	206.409
6.3575	90.1982	103.392	206.41
6.36	90.2231	103.367	206.41
6.3625	90.248	103.341	206.411
6.365	90.2728	103.316	206.411
6.3675	90.2977	103.291	206.411
6.37	90.3225	103.266	206.411
6.3725	90.3473	103.241	206.412
6.375	90.3722	103.216	206.412
6.3775	90.397	103.191	206.412
6.38	90.4218	103.167	206.412
6.3825	90.4466	103.142	206.411
6.385	90.4714	103.117	206.411
6.3875	90.4961	103.093	206.411
6.39	90.5209	103.068	206.411
6.3925	90.5457	103.044	206.41
6.395	90.5704	103.02	206.41
6.3975	90.5952	102.995	206.409
6.4	90.6199	102.971	206.409
6.4025	90.6446	102.947	206.408
6.405	90.6693	102.923	206.408
6.4075	90.6941	102.899	206.407
6.41	90.7187	102.875	206.406
6.4125	90.7434	102.851	206.405
6.415	90.7681	102.828	206.404
6.4175	90.7928	102.804	206.403
6.42	90.8174	102.78	206.402
6.4225	90.8421	102.757	206.401
6.425	90.8667	102.733	206.4
6.4275	90.8913	102.71	206.399
6.43	90.9159	102.686	206.398
6.4325	90.9405	102.663	206.396
6.435	90.9651	102.64	206.395
6.4375	90.9897	102.617	206.394
6.44	91.0142	102.594	206.392
6.4425	91.0388	102.571	206.391
6.445	91.0633	102.548	206.389
6.4475	91.0878	102.525	206.387
6.45	91.1123	102.502	206.386
6.4525	91.1368	102.479	206.384
6.455	91.1613	102.457	206.382
6.4575	91.1858	102.434	206.38
6.46	91.2102	102.411	206.378
6.4625	91.2347	102.389	206.376
6.465	91.2591	102.367	206.374
6.4675	91.2835	102.344	206.372
6.47	91.3079	102.322	206.37
6.4725	91.3323	102.3	206.368
6.475	91.3567	102.278	206.366
6.4775	91.381	102.256	206.363
6.48	91.4054	102.234	206.361
6.4825	91.4297	102.212	206.359
6.485	91.454	102.19	206.356
6.4875	91.4783	102.168	206.354
6.49	91.5026	102.146	206.351
6.4925	91.5269	102.125	206.349
6.495	91.5511	102.103	206.346
6.4975	91.5753	102.081	206.343
6.5	91.5996	102.06	206.34
6.5025	91.6238	102.039	206.338
6.505	91.6479	102.017	206.335
6.5075	91.6721	101.996	206.332
6.51	91.6963	101.975	206.329
6.5125	91.7204	101.954	206.326
6.515	91.7445	101.933	206.323
6.5175	91.7686	101.912	206.32
6.52	91.7927	101.891	206.317
6.5225	91.8168	101.87	206.313
6.525	91.8408	101.849	206.31
6.5275	91.8648	101.828	206.307
6.53	91.8889	101.808	206.304
6.5325	91.9129	101.787	206.3
6.535	91.9368	101.766	206.297
6.5375	91.9608	101.746	206.293
6.54	91.9847	101.726	206.29
6.5425	92.0087	101.705	206.286
6.545	92.0326	101.685	206.283
6.5475	92.0565	101.665	206.279
6.55	92.0803	101.644	206.275
6.5525	92.1042	101.624	206.271
6.555	92.128	101.604	206.268
6.5575	92.1518	101.584	206.264
6.56	92.1756	101.565	206.26
6.5625	92.1994	101.545	206.256
6.565	92.2231	101.525	206.252
6.5675	92.2468	101.505	206.248
6.57	92.2706	101.486	206.244
6.5725	92.2943	101.466	206.24
6.575	92.3179	101.446	206.236
6.5775	92.3416	101.427	206.231
6.58	92.3652	101.408	206.227
6.5825	92.3888	101.388	206.223
6.585	92.4124	101.369	206.219
6.5875	92.436	101.35	206.214
6.59	92.4595	101.331	206.21
6.5925	92.483	101.312	206.205
6.595	92.5066	101.293	206.201
6.5975	92.53	101.274	206.196
6.6	92.5535	101.255	206.192
6.6025	92.5769	101.236	206.187
6.605	92.6004	101.217	206.182
6.6075	92.6238	101.199	206.178
6.61	92.6471	101.18	206.173
6.6125	92.6705	101.161	206.168
6.615	92.6938	101.143	206.163
6.6175	92.7171	101.124	206.158
6.62	92.7404	101.106	206.154
6.6225	92.7637	101.088	206.149
6.625	92.7869	101.069	206.144
6.6275	92.8102	101.051	206.139
6.63	92.8333	101.033	206.134
6.6325	92.8565	101.015	206.128
6.635	92.8797	100.997	206.123
6.6375	92.9028	100.979	206.118
6.64	92.9259	100.961	206.113
6.6425	92.949	100.943	206.108
6.645	92.972	100.926	206.102
6.6475	92.9951	100.908	206.097
6.65	93.0181	100.89	206.092
6.6525	93.0411	100.873	206.086
6.655	93.064	100.855	206.081
6.6575	93.087	100.838	206.075
6.66	93.1099	100.82	206.07
6.6625	93.1328	100.803	206.064
6.665	93.1557	100.786	206.059
6.6675	93.1785	100.768	206.053
6.67	93.2013	100.751	206.047
6.6725	93.2241	100.734	206.042
6.675	93.2469	100.717	206.036
6.6775	93.2696	100.7	206.03
6.68	93.2923	100.683	206.024
6.6825	93.315	100.666	206.019
6.685	93.3377	100.65	206.013
6.6875	93.3603	100.633	206.007
6.69	93.383	100.616	206.001
6.6925	93.4056	100.6	205.995
6.695	93.4281	100.583	205.989
6.6975	93.4507	100.567	205.983
6.7	93.4732	100.55	205.977
6.7025	93.4957	100.534	205.971
6.705	93.5181	100.517	205.964
6.7075	93.5406	100.501	205.958
6.71	93.563	100.485	205.952
6.7125	93.5854	100.469	205.946
6.715	93.6077	100.453	205.94
6.7175	93.6301	100.437	205.933
6.72	93.6524	100.421	205.927
6.7225	93.6746	100.405	205.92
6.725	93.6969	100.389	205.914
6.7275	93.7191	100.373	205.908
6.73	93.7413	100.358	205.901
6.7325	93.7635	100.342	205.895
6.735	93.7856	100.326	205.888
6.7375	93.8077	100.311	205.882
6.74	93.8298	100.295	205.875
6.7425	93.8519	100.28	205.868
6.745	93.8739	100.264	205.862
6.7475	93.8959	100.249	205.855
6.75	93.9179	100.234	205.848
6.7525	93.9399	100.219	205.842
6.755	93.9618	100.203	205.835
6.7575	93.9837	100.188	205.828
6.76	94.0056	100.173	205.821
6.7625	94.0274	100.158	205.814
6.765	94.0492	100.143	205.807
6.7675	94.071	100.128	205.801
6.77	94.0928	100.114	205.794
6.7725	94.1145	100.099	205.787
6.775	94.1362	100.084	205.78
6.7775	94.1579	100.07	205.773
6.78	94.1795	100.055	205.766
6.7825	94.2011	100.04	205.758
6.785	94.2227	100.026	205.751
6.7875	94.2443	100.012	205.744
6.79	94.2658	99.9972	205.737
6.7925	94.2873	99.9829	205.73
6.795	94.3088	99.9686	205.723
6.7975	94.3302	99.9544	205.715
6.8	94.3516	99.9403	205.708
6.8025	94.373	99.9262	205.701
6.805	94.3944	99.9122	205.693
6.8075	94.4157	99.8982	205.686
6.81	94.437	99.8843	205.679
6.8125	94.4582	99.8704	205.671
6.815	94.4795	99.8566	205.664
6.8175	94.5007	99.8428	205.656
6.82	94.5219	99.8291	205.649
6.8225	94.543	99.8155	205.642
6.825	94.5641	99.8019	205.634
6.8275	94.5852	99.7884	205.626
6.83	94.6063	99.7749	205.619
6.8325	94.6273	99.7615	205.611
6.835	94.6483	99.7481	205.604
6.8375	94.6692	99.7348	205.596
6.84	94.6902	99.7215	205.588
6.8425	94.7111	99.7083	205.581
6.845	94.732	99.6951	205.573
6.8475	94.7528	99.682	205.565
6.85	94.7736	99.669	205.557
6.8525	94.7944	99.656	205.55
6.855	94.8151	99.643	205.542
6.8575	94.8359	99.6302	205.534
6.86	94.8565	99.6173	205.526
6.8625	94.8772	99.6045	205.518
6.865	94.8978	99.5918	205.51
6.8675	94.9184	99.5791	205.502
6.87	94.939	99.5665	205.494
6.8725	94.9595	99.5539	205.487
6.875	94.98	99.5414	205.479
6.8775	95.0005	99.529	205.471
6.88	95.0209	99.5165	205.463
6.8825	95.0414	99.5042	205.454
6.885	95.0617	99.4919	205.446
6.8875	95.0821	99.4796	205.438
6.89	95.1024	99.4674	205.43
6.8925	95.1227	99.4553	205.422
6.895	95.1429	99.4432	205.414
6.8975	95.1631	99.4311	205.406
6.9	95.1833	99.4191	205.398
6.9025	95.2035	99.4072	205.389
6.905	95.2236	99.3953	205.381
6.9075	95.2437	99.3834	205.373
6.91	95.2638	99.3716	205.365
6.9125	95.2838	99.3599	205.356
6.915	95.3038	99.3482	205.348
6.9175	95.3237	99.3366	205.34
6.92	95.3437	99.325	205.331
6.9225	95.3636	99.3134	205.323
6.925	95.3834	99.302	205.315
6.9275	95.4033	99.2905	205.306
6.93	95.4231	99.2791	205.298
6.9325	95.4428	99.2678	205.289
6.935	95.4626	99.2565	205.281
6.9375	95.4823	99.2453	205.272
6.94	95.5019	99.2341	205.264
6.9425	95.5216	99.223	205.255
6.945	95.5412	99.2119	205.247
6.9475	95.5608	99.2008	205.238
6.95	95.5803	99.1899	205.23
6.9525	95.5998	99.1789	205.221
6.955	95.6193	99.168	205.213
6.9575	95.6387	99.1572	205.204
6.96	95.6581	99.1464	205.195
6.9625	95.6775	99.1357	205.187
6.965	95.6968	99.125	205.178
6.9675	95.7161	99.1143	205.17
6.97	95.7354	99.1038	205.161
6.9725	95.7547	99.0932	205.152
6.975	95.7739	99.0827	205.143
6.9775	95.793	99.0723	205.135
6.98	95.8122	99.0619	205.126
6.9825	95.8313	99.0515	205.117
6.985	95.8504	99.0412	205.108
6.9875	95.8694	99.031	205.1
6.99	95.8884	99.0208	205.091
6.9925	95.9074	99.0106	205.082
6.995	95.9263	99.0005	205.073
6.9975	95.9452	98.9905	205.064
7	95.9641	98.9805	205.055
7.0025	95.9829	98.9705	205.047
7.005	96.0017	98.9606	205.038
7.0075	96.0205	98.9507	205.029
7.01	96.0392	98.9409	205.02
7.0125	96.058	98.9311	205.011
7.015	96.0766	98.9214	205.002
7.0175	96.0953	98.9117	204.993
7.02	96.1139	98.9021	204.984
7.0225	96.1324	98.8925	204.975
7.025	96.151	98.883	204.966
7.0275	96.1695	98.8735	204.957
7.03	96.1879	98.864	204.948
7.0325	96.2063	98.8546	204.939
7.035	96.2247	98.8453	204.93
7.0375	96.2431	98.836	204.921
7.04	96.2614	98.8267	204.912
7.0425	96.2797	98.8175	204.903
7.045	96.298	98.8083	204.894
7.0475	96.3162	98.7992	204.885
7.05	96.3344	98.7901	204.875
7.0525	96.3525	98.7811	204.866
7.055	96.3707	98.7721	204.857
7.0575	96.3888	98.7632	204.848
7.06	96.4068	98.7543	204.839
7.0625	96.4248	98.7454	204.83
7.065	96.4428	98.7366	204.821
7.0675	96.4608	98.7279	204.811
7.07	96.4787	98.7192	204.802
7.0725	96.4965	98.7105	204.793
7.075	96.5144	98.7019	204.784
7.0775	96.5322	98.6933	204.775
7.08	96.55	98.6847	204.765
7.0825	96.5677	98.6763	204.756
7.085	96.5854	98.6678	204.747
7.0875	96.6031	98.6594	204.738
7.09	96.6207	98.6511	204.728
7.0925	96.6383	98.6427	204.719
7.095	96.6559	98.6345	204.71
7.0975	96.6734	98.6263	204.7
7.1	96.6909	98.6181	204.691
7.1025	96.7084	98.6099	204.682
7.105	96.7258	98.6018	204.672
7.1075	96.7432	98.5938	204.663
7.11	96.7605	98.5858	204.654
7.1125	96.7779	98.5778	204.644
7.115	96.7951	98.5699	204.635
7.1175	96.8124	98.562	204.626
7.12	96.8296	98.5542	204.616
7.1225	96.8468	98.5464	204.607
7.125	96.8639	98.5387	204.597
7.1275	96.881	98.531	204.588
7.13	96.8981	98.5233	204.579
7.1325	96.9151	98.5157	204.569
7.135	96.9321	98.5081	204.56
7.1375	96.9491	98.5006	204.55
7.14	96.966	98.4931	204.541
7.1425	96.9829	98.4856	204.531
7.145	96.9998	98.4782	204.522
7.1475	97.0166	98.4709	204.513
7.15	97.0334	98.4635	204.503
7.1525	97.0502	98.4562	204.494
7.155	97.0669	98.449	204.484
7.1575	97.0836	98.4418	204.475
7.16	97.1002	98.4347	204.465
7.1625	97.1168	98.4275	204.456
7.165	97.1334	98.4205	204.446
7.1675	97.15	98.4134	204.437
7.17	97.1665	98.4064	204.427
7.1725	97.1829	98.3995	204.418
7.175	97.1994	98.3926	204.408
7.1775	97.2158	98.3857	204.399
7.18	97.2321	98.3789	204.389
7.1825	97.2485	98.3721	204.379
7.185	97.2648	98.3653	204.37
7.1875	97.281	98.3586	204.36
7.19	97.2972	98.352	204.351
7.1925	97.3134	98.3453	204.341
7.195	97.3296	98.3388	204.332
7.1975	97.3457	98.3322	204.322
7.2	97.3618	98.3257	204.313
7.2025	97.3778	98.3192	204.303
7.205	97.3938	98.3128	204.293
7.2075	97.4098	98.3064	204.284
7.21	97.4257	98.3001	204.274
7.2125	97.4416	98.2938	204.265
7.215	97.4575	98.2875	204.255
7.2175	97.4733	98.2813	204.245
7.22	97.4891	98.2751	204.236
7.2225	97.5049	98.269	204.226
7.225	97.5206	98.2628	204.217
7.2275	97.5363	98.2568	204.207
7.23	97.5519	98.2507	204.197
7.2325	97.5675	98.2447	204.188
7.235	97.5831	98.2388	204.178
7.2375	97.5987	98.2329	204.168
7.24	97.6142	98.227	204.159
7.2425	97.6296	98.2212	204.149
7.245	97.6451	98.2154	204.14
7.2475	97.6605	98.2096	204.13
7.25	97.6758	98.2039	204.12
7.2525	97.6912	98.1982	204.111
7.255	97.7065	98.1925	204.101
7.2575	97.7217	98.1869	204.091
7.26	97.7369	98.1813	204.082
7.2625	97.7521	98.1758	204.072
7.265	97.7673	98.1703	204.062
7.2675	97.7824	98.1648	204.053
7.27	97.7975	98.1594	204.043
7.2725	97.8125	98.154	204.033
7.275	97.8275	98.1487	204.024
7.2775	97.8425	98.1434	204.014
7.28	97.8574	98.1381	204.004
7.2825	97.8723	98.1329	203.995
7.285	97.8872	98.1277	203.985
7.2875	97.902	98.1225	203.975
7.29	97.9168	98.1174	203.966
7.2925	97.9316	98.1123	203.956
7.295	97.9463	98.1072	203.946
7.2975	97.961	98.1022	203.937
7.3	97.9756	98.0972	203.927
7.3025	97.9902	98.0923	203.917
7.305	98.0048	98.0874	203.908
7.3075	98.0194	98.0825	203.898
7.31	98.0339	98.0777	203.888
7.3125	98.0483	98.0728	203.879
7.315	98.0628	98.0681	203.869
7.3175	98.0772	98.0633	203.859
7.32	98.0915	98.0587	203.85
7.3225	98.1058	98.054	203.84
7.325	98.1201	98.0494	203.83
7.3275	98.1344	98.0448	203.821
7.33	98.1486	98.0402	203.811
7.3325	98.1628	98.0357	203.802
7.335	98.1769	98.0312	203.792
7.3375	98.1911	98.0268	203.782
7.34	98.2051	98.0223	203.773
7.3425	98.2192	98.018	203.763
7.345	98.2332	98.0136	203.753
7.3475	98.2471	98.0093	203.744
7.35	98.2611	98.005	203.734
7.3525	98.275	98.0008	203.724
7.355	98.2888	97.9966	203.715
7.3575	98.3027	97.9924	203.705
7.36	98.3165	97.9883	203.695
7.3625	98.3302	97.9842	203.686
7.365	98.3439	97.9801	203.676
7.3675	98.3576	97.976	203.666
7.37	98.3713	97.972	203.657
7.3725	98.3849	97.9681	203.647
7.375	98.3984	97.9641	203.637
7.3775	98.412	97.9602	203.628
7.38	98.4255	97.9563	203.618
7.3825	98.439	97.9525	203.609
7.385	98.4524	97.9487	203.599
7.3875	98.4658	97.9449	203.589
7.39	98.4792	97.9412	203.58
7.3925	98.4925	97.9375	203.57
7.395	98.5058	97.9338	203.56
7.3975	98.519	97.9302	203.551
7.4	98.5323	97.9266	203.541
7.4025	98.5454	97.923	203.532
7.405	98.5586	97.9194	203.522
7.4075	98.5717	97.9159	203.512
7.41	98.5848	97.9124	203.503
7.4125	98.5978	97.909	203.493
7.415	98.6108	97.9056	203.484
7.4175	98.6238	97.9022	203.474
7.42	98.6367	97.8988	203.464
7.4225	98.6497	97.8955	203.455
7.425	98.6625	97.8922	203.445
7.4275	98.6754	97.889	203.436
7.43	98.6881	97.8857	203.426
7.4325	98.7009	97.8826	203.417
7.435	98.7136	97.8794	203.407
7.4375	98.7263	97.8763	203.397
7.44	98.739	97.8732	203.388
7.4425	98.7516	97.8701	203.378
7.445	98.7642	97.867	203.369
7.4475	98.7767	97.864	203.359
7.45	98.7892	97.8611	203.35
7.4525	98.8017	97.8581	203.34
7.455	98.8142	97.8552	203.331
7.4575	98.8266	97.8523	203.321
7.46	98.839	97.8495	203.312
7.4625	98.8513	97.8466	203.302
7.465	98.8636	97.8438	203.293
7.4675	98.8759	97.8411	203.283
7.47	98.8881	97.8383	203.274
7.4725	98.9003	97.8356	203.264
7.475	98.9125	97.833	203.255
7.4775	98.9246	97.8303	203.245
7.48	98.9367	97.8277	203.236
7.4825	98.9487	97.8251	203.226
7.485	98.9608	97.8226	203.217
7.4875	98.9727	97.82	203.207
7.49	98.9847	97.8175	203.198
7.4925	98.9966	97.8151	203.188
7.495	99.0085	97.8126	203.179
7.4975	99.0204	97.8102	203.169
7.5	99.0322	97.8078	203.16
7.5025	99.0439	97.8055	203.151
7.505	99.0557	97.8032	203.141
7.5075	99.0674	97.8009	203.132
7.51	99.0791	97.7986	203.122
7.5125	99.0907	97.7964	203.113
7.515	99.1023	97.7942	203.104
7.5175	99.1139	97.792	203.094
7.52	99.1254	97.7898	203.085
7.5225	99.1369	97.7877	203.075
7.525	99.1484	97.7856	203.066
7.5275	99.1598	97.7835	203.057
7.53	99.1712	97.7815	203.047
7.5325	99.1826	97.7795	203.038
7.535	99.1939	97.7775	203.029
7.5375	99.2052	97.7755	203.019
7.54	99.2165	97.7736	203.01
7.5425	99.2277	97.7717	203.001
7.545	99.2389	97.7698	202.991
7.5475	99.2501	97.768	202.982
7.55	99.2612	97.7662	202.973
7.5525	99.2723	97.7644	202.963
7.555	99.2833	97.7626	202.954
7.5575	99.2943	97.7609	202.945
7.56	99.3053	97.7592	202.936
7.5625	99.3163	97.7575	202.926
7.565	99.3272	97.7558	202.917
7.5675	99.3381	97.7542	202.908
7.57	99.3489	97.7526	202.898
7.5725	99.3598	97.751	202.889
7.575	99.3705	97.7495	202.88
7.5775	99.3813	97.7479	202.871
7.58	99.392	97.7464	202.862
7.5825	99.4027	97.745	202.852
7.585	99.4133	97.7435	202.843
7.5875	99.4239	97.7421	202.834
7.59	99.4345	97.7407	202.825
7.5925	99.4451	97.7393	202.816
7.595	99.4556	97.738	202.806
7.5975	99.466	97.7367	202.797
7.6	99.4765	97.7354	202.788
7.6025	99.4869	97.7341	202.779
7.605	99.4973	97.7329	202.77
7.6075	99.5076	97.7317	202.761
7.61	99.5179	97.7305	202.752
7.6125	99.5282	97.7293	202.743
7.615	99.5384	97.7282	202.733
7.6175	99.5486	97.727	202.724
7.62	99.5588	97.726	202.715
7.6225	99.569	97.7249	202.706
7.625	99.5791	97.7238	202.697
7.6275	99.5891	97.7228	202.688
7.63	99.5992	97.7218	202.679
7.6325	99.6092	97.7209	202.67
7.635	99.6192	97.7199	202.661
7.6375	99.6291	97.719	202.652
7.64	99.639	97.7181	202.643
7.6425	99.6489	97.7172	202.634
7.645	99.6587	97.7164	202.625
7.6475	99.6685	97.7156	202.616
7.65	99.6783	97.7148	202.607
7.6525	99.688	97.714	202.598
7.655	99.6977	97.7133	202.589
7.6575	99.7074	97.7125	202.58
7.66	99.7171	97.7118	202.571
7.6625	99.7267	97.7111	202.562
7.665	99.7362	97.7105	202.553
7.6675	99.7458	97.7099	202.544
7.67	99.7553	97.7092	202.535
7.6725	99.7648	97.7087	202.527
7.675	99.7742	97.7081	202.518
7.6775	99.7836	97.7076	202.509
7.68	99.793	97.707	202.5
7.6825	99.8024	97.7065	202.491
7.685	99.8117	97.7061	202.482
7.6875	99.821	97.7056	202.473
7.69	99.8302	97.7052	202.465
7.6925	99.8394	97.7048	202.456
7.695	99.8486	97.7044	202.447
7.6975	99.8578	97.7041	202.438
7.7	99.8669	97.7037	202.429
7.7025	99.876	97.7034	202.421
7.705	99.885	97.7031	202.412
7.7075	99.894	97.7028	202.403
7.71	99.903	97.7026	202.394
7.7125	99.912	97.7024	202.386
7.715	99.9209	97.7022	202.377
7.7175	99.9298	97.702	202.368
7.72	99.9387	97.7018	202.36
7.7225	99.9475	97.7017	202.351
7.725	99.9563	97.7016	202.342
7.7275	99.9651	97.7015	202.333
7.73	99.9738	97.7014	202.325
7.7325	99.9825	97.7013	202.316
7.735	99.9912	97.7013	202.308
7.7375	99.9998	97.7013	202.299
7.74	100.008	97.7013	202.29
7.7425	100.017	97.7013	202.282
7.745	100.026	97.7014	202.273
7.7475	100.034	97.7015	202.265
7.75	100.042	97.7016	202.256
7.7525	100.051	97.7017	202.247
7.755	100.059	97.7018	202.239
7.7575	100.068	97.702	202.23
7.76	100.076	97.7021	202.222
7.7625	100.084	97.7023	202.213
7.765	100.093	97.7026	202.205
7.7675	100.101	97.7028	202.196
7.77	100.109	97.703	202.188
7.7725	100.117	97.7033	202.179
7.775	100.126	97.7036	202.171
7.7775	100.134	97.7039	202.162
7.78	100.142	97.7043	202.154
7.7825	100.15	97.7046	202.146
7.785	100.158	97.705	202.137
7.7875	100.166	97.7054	202.129
7.79	100.174	97.7058	202.12
7.7925	100.182	97.7063	202.112
7.795	100.19	97.7067	202.104
7.7975	100.198	97.7072	202.095
7.8	100.205	97.7077	202.087
7.8025	100.213	97.7082	202.079
7.805	100.221	97.7087	202.07
7.8075	100.229	97.7093	202.062
7.81	100.237	97.7098	202.054
7.8125	100.244	97.7104	202.045
7.815	100.252	97.711	202.037
7.8175	100.26	97.7116	202.029
7.82	100.267	97.7123	202.021
7.8225	100.275	97.713	202.012
7.825	100.282	97.7136	202.004
7.8275	100.29	97.7143	201.996
7.83	100.297	97.7151	201.988
7.8325	100.305	97.7158	201.979
7.835	100.312	97.7165	201.971
7.8375	100.32	97.7173	201.963
7.84	100.327	97.7181	201.955
7.8425	100.334	97.7189	201.947
7.845	100.342	97.7197	201.939
7.8475	100.349	97.7206	201.931
7.85	100.356	97.7214	201.922
7.8525	100.363	97.7223	201.914
7.855	100.371	97.7232	201.906
7.8575	100.378	97.7241	201.898
7.86	100.385	97.7251	201.89
7.8625	100.392	97.726	201.882
7.865	100.399	97.727	201.874
7.8675	100.406	97.728	201.866
7.87	100.413	97.729	201.858
7.8725	100.42	97.73	201.85
7.875	100.427	97.731	201.842
7.8775	100.434	97.7321	201.834
7.88	100.441	97.7331	201.826
7.8825	100.448	97.7342	201.818
7.885	100.454	97.7353	201.81
7.8875	100.461	97.7364	201.802
7.89	100.468	97.7376	201.794
7.8925	100.475	97.7387	201.787
7.895	100.481	97.7399	201.779
7.8975	100.488	97.7411	201.771
7.9	100.495	97.7423	201.763
7.9025	100.501	97.7435	201.755
7.905	100.508	97.7447	201.747
7.9075	100.515	97.746	201.739
7.91	100.521	97.7472	201.732
7.9125	100.528	97.7485	201.724
7.915	100.534	97.7498	201.716
7.9175	100.541	97.7511	201.708
7.92	100.547	97.7525	201.701
7.9225	100.553	97.7538	201.693
7.925	100.56	97.7552	201.685
7.9275	100.566	97.7565	201.677
7.93	100.572	97.7579	201.67
7.9325	100.579	97.7593	201.662
7.935	100.585	97.7608	201.654
7.9375	100.591	97.7622	201.647
7.94	100.597	97.7637	201.639
7.9425	100.603	97.7651	201.631
7.945	100.61	97.7666	201.624
7.9475	100.616	97.7681	201.616
7.95	100.622	97.7696	201.609
7.9525	100.628	97.7711	201.601
7.955	100.634	97.7727	201.593
7.9575	100.64	97.7742	201.586
7.96	100.646	97.7758	201.578
7.9625	100.652	97.7774	201.571
7.965	100.658	97.779	201.563
7.9675	100.664	97.7806	201.556
7.97	100.669	97.7822	201.548
7.9725	100.675	97.7839	201.541
7.975	100.681	97.7855	201.533
7.9775	100.687	97.7872	201.526
7.98	100.693	97.7889	201.519
7.9825	100.698	97.7906	201.511
7.985	100.704	97.7923	201.504
7.9875	100.71	97.794	201.496
7.99	100.715	97.7958	201.489
7.9925	100.721	97.7975	201.482
7.995	100.726	97.7993	201.474
7.9975	100.732	97.8011	201.467
8	100.738	97.8029	201.46
8.0025	100.743	97.8047	201.452
8.005	100.749	97.8065	201.445
8.0075	100.754	97.8084	201.438
8.01	100.759	97.8102	201.43
8.0125	100.765	97.8121	201.423
8.015	100.77	97.8139	201.416
8.0175	100.776	97.8158	201.409
8.02	100.781	97.8177	201.401
8.0225	100.786	97.8197	201.394
8.025	100.791	97.8216	201.387
8.0275	100.797	97.8235	201.38
8.03	100.802	97.8255	201.373
8.0325	100.807	97.8275	201.366
8.035	100.812	97.8294	201.358
8.0375	100.817	97.8314	201.351
8.04	100.822	97.8334	201.344
8.0425	100.827	97.8354	201.337
8.045	100.832	97.8375	201.33
8.0475	100.837	97.8395	201.323
8.05	100.842	97.8416	201.316
8.0525	100.847	97.8436	201.309
8.055	100.852	97.8457	201.302
8.0575	100.857	97.8478	201.295
8.06	100.862	97.8499	201.288
8.0625	100.867	97.852	201.281
8.065	100.872	97.8542	201.274
8.0675	100.877	97.8563	201.267
8.07	100.881	97.8584	201.26
8.0725	100.886	97.8606	201.253
8.075	100.891	97.8628	201.246
8.0775	100.896	97.865	201.239
8.08	100.9	97.8672	201.232
8.0825	100.905	97.8694	201.226
8.085	100.91	97.8716	201.219
8.0875	100.914	97.8738	201.212
8.09	100.919	97.8761	201.205
8.0925	100.923	97.8783	201.198
8.095	100.928	97.8806	201.191
8.0975	100.932	97.8829	201.185
8.1	100.937	97.8851	201.178
8.1025	100.941	97.8874	201.171
8.105	100.946	97.8898	201.164
8.1075	100.95	97.8921	201.158
8.11	100.955	97.8944	201.151
8.1125	100.959	97.8967	201.144
8.115	100.963	97.8991	201.138
8.1175	100.968	97.9015	201.131
8.12	100.972	97.9038	201.124
8.1225	100.976	97.9062	201.118
8.125	100.98	97.9086	201.111
8.1275	100.985	97.911	201.104
8.13	100.989	97.9134	201.098
8.1325	100.993	97.9159	201.091
8.135	100.997	97.9183	201.085
8.1375	101.001	97.9207	201.078
8.14	101.005	97.9232	201.072
8.1425	101.009	97.9257	201.065
8.145	101.013	97.9281	201.059
8.1475	101.017	97.9306	201.052
8.15	101.021	97.9331	201.046
8.1525	101.025	97.9356	201.039
8.155	101.029	97.9381	201.033
8.1575	101.033	97.9407	201.026
8.16	101.037	97.9432	201.02
8.1625	101.041	97.9457	201.013
8.165	101.045	97.9483	201.007
8.1675	101.049	97.9509	201.001
8.17	101.052	97.9534	200.994
8.1725	101.056	97.956	200.988
8.175	101.06	97.9586	200.982
8.1775	101.064	97.9612	200.975
8.18	101.067	97.9638	200.969
8.1825	101.071	97.9664	200.963
8.185	101.075	97.9691	200.956
8.1875	101.078	97.9717	200.95
8.19	101.082	97.9743	200.944
8.1925	101.085	97.977	200.938
8.195	101.089	97.9797	200.931
8.1975	101.092	97.9823	200.925
8.2	101.096	97.985	200.919
8.2025	101.099	97.9877	200.913
8.205	101.103	97.9904	200.907
8.2075	101.106	97.9931	200.9
8.21	101.11	97.9958	200.894
8.2125	101.113	97.9985	200.888
8.215	101.117	98.0013	200.882
8.2175	101.12	98.004	200.876
8.22	101.123	98.0068	200.87
8.2225	101.127	98.0095	200.864
8.225	101.13	98.0123	200.858
8.2275	101.133	98.0151	200.852
8.23	101.136	98.0178	200.846
8.2325	101.14	98.0206	200.84
8.235	101.143	98.0234	200.834
8.2375	101.146	98.0262	200.828
8.24	101.149	98.029	200.822
8.2425	101.152	98.0319	200.816
8.245	101.155	98.0347	200.81
8.2475	101.158	98.0375	200.804
8.25	101.161	98.0404	200.798
8.2525	101.165	98.0432	200.792
8.255	101.168	98.0461	200.786
8.2575	101.171	98.0489	200.781
8.26	101.174	98.0518	200.775
8.2625	101.176	98.0547	200.769
8.265	101.179	98.0576	200.763
8.2675	101.182	98.0605	200.757
8.27	101.185	98.0634	200.751
8.2725	101.188	98.0663	200.746
8.275	101.191	98.0692	200.74
8.2775	101.194	98.0721	200.734
8.28	101.197	98.0751	200.728
8.2825	101.199	98.078	200.723
8.285	101.202	98.0809	200.717
8.2875	101.205	98.0839	200.711
8.29	101.207	98.0868	200.706
8.2925	101.21	98.0898	200.7
8.295	101.213	98.0928	200.694
8.2975	101.216	98.0958	200.689
8.3	101.218	98.0987	200.683
8.3025	101.221	98.1017	200.678
8.305	101.223	98.1047	200.672
8.3075	101.226	98.1077	200.666
8.31	101.228	98.1107	200.661
8.3125	101.231	98.1138	200.655
8.315	101.233	98.1168	200.65
8.3175	101.236	98.1198	200.644
8.32	101.238	98.1228	200.639
8.3225	101.241	98.1259	200.633
8.325	101.243	98.1289	200.628
8.3275	101.246	98.132	200.622
8.33	101.248	98.135	200.617
8.3325	101.25	98.1381	200.611
8.335	101.253	98.1412	200.606
8.3375	101.255	98.1443	200.601
8.34	101.257	98.1473	200.595
8.3425	101.26	98.1504	200.59
8.345	101.262	98.1535	200.585
8.3475	101.264	98.1566	200.579
8.35	101.266	98.1597	200.574
8.3525	101.269	98.1628	200.569
8.355	101.271	98.166	200.563
8.3575	101.273	98.1691	200.558
8.36	101.275	98.1722	200.553
8.3625	101.277	98.1753	200.547
8.365	101.279	98.1785	200.542
8.3675	101.281	98.1816	200.537
8.37	101.283	98.1848	200.532
8.3725	101.285	98.1879	200.527
8.375	101.288	98.1911	200.521
8.3775	101.29	98.1942	200.516
8.38	101.292	98.1974	200.511
8.3825	101.293	98.2006	200.506
8.385	101.295	98.2038	200.501
8.3875	101.297	98.2069	200.496
8.39	101.299	98.2101	200.491
8.3925	101.301	98.2133	200.486
8.395	101.303	98.2165	200.48
8.3975	101.305	98.2197	200.475
8.4	101.307	98.2229	200.47
8.4025	101.309	98.2261	200.465
8.405	101.31	98.2293	200.46
8.4075	101.312	98.2326	200.455
8.41	101.314	98.2358	200.45
8.4125	101.316	98.239	200.445
8.415	101.317	98.2423	200.44
8.4175	101.319	98.2455	200.436
8.42	101.321	98.2487	200.431
8.4225	101.322	98.252	200.426
8.425	101.324	98.2552	200.421
8.4275	101.326	98.2585	200.416
8.43	101.327	98.2617	200.411
8.4325	101.329	98.265	200.406
8.435	101.33	98.2683	200.401
8.4375	101.332	98.2715	200.397
8.44	101.333	98.2748	200.392
8.4425	101.335	98.2781	200.387
8.445	101.336	98.2814	200.382
8.4475	101.338	98.2847	200.377
8.45	101.339	98.288	200.373
8.4525	101.341	98.2912	200.368
8.455	101.342	98.2945	200.363
8.4575	101.344	98.2978	200.358
8.46	101.345	98.3011	200.354
8.4625	101.346	98.3045	200.349
8.465	101.348	98.3078	200.344
8.4675	101.349	98.3111	200.34
8.47	101.35	98.3144	200.335
8.4725	101.352	98.3177	200.33
8.475	101.353	98.321	200.326
8.4775	101.354	98.3244	200.321
8.48	101.356	98.3277	200.317
8.4825	101.357	98.331	200.312
8.485	101.358	98.3344	200.308
8.4875	101.359	98.3377	200.303
8.49	101.36	98.3411	200.298
8.4925	101.362	98.3444	200.294
8.495	101.363	98.3477	200.289
8.4975	101.364	98.3511	200.285
8.5	101.365	98.3545	200.281
8.5025	101.366	98.3578	200.276
8.505	101.367	98.3612	200.272
8.5075	101.368	98.3645	200.267
8.51	101.369	98.3679	200.263
8.5125	101.37	98.3713	200.258
8.515	101.371	98.3746	200.254
8.5175	101.372	98.378	200.25
8.52	101.373	98.3814	200.245
8.5225	101.374	98.3848	200.241
8.525	101.375	98.3882	200.237
8.5275	101.376	98.3915	200.232
8.53	101.377	98.3949	200.228
8.5325	101.378	98.3983	200.224
8.535	101.379	98.4017	200.219
8.5375	101.38	98.4051	200.215
8.54	101.381	98.4085	200.211
8.5425	101.381	98.4119	200.207
8.545	101.382	98.4153	200.202
8.5475	101.383	98.4187	200.198
8.55	101.384	98.4221	200.194
8.5525	101.385	98.4255	200.19
8.555	101.385	98.4289	200.186
8.5575	101.386	98.4323	200.182
8.56	101.387	98.4357	200.177
8.5625	101.388	98.4391	200.173
8.565	101.388	98.4426	200.169
8.5675	101.389	98.446	200.165
8.57	101.39	98.4494	200.161
8.5725	101.39	98.4528	200.157
8.575	101.391	98.4562	200.153
8.5775	101.392	98.4597	200.149
8.58	101.392	98.4631	200.145
8.5825	101.393	98.4665	200.141
8.585	101.393	98.47	200.137
8.5875	101.394	98.4734	200.133
8.59	101.394	98.4768	200.129
8.5925	101.395	98.4802	200.125
8.595	101.395	98.4837	200.121
8.5975	101.396	98.4871	200.117
8.6	101.396	98.4906	200.113
8.6025	101.397	98.494	200.109
8.605	101.397	98.4974	200.105
8.6075	101.398	98.5009	200.101
8.61	101.398	98.5043	200.097
8.6125	101.399	98.5078	200.094
8.615	101.399	98.5112	200.09
8.6175	101.399	98.5147	200.086
8.62	101.4	98.5181	200.082
8.6225	101.4	98.5216	200.078
8.625	101.4	98.525	200.075
8.6275	101.401	98.5285	200.071
8.63	101.401	98.5319	200.067
8.6325	101.401	98.5354	200.063
8.635	101.402	98.5388	200.06
8.6375	101.402	98.5423	200.056
8.64	101.402	98.5457	200.052
8.6425	101.402	98.5492	200.048
8.645	101.403	98.5526	200.045
8.6475	101.403	98.5561	200.041
8.65	101.403	98.5595	200.037
8.6525	101.403	98.563	200.034
8.655	101.403	98.5665	200.03
8.6575	101.404	98.5699	200.027
8.66	101.404	98.5734	200.023
8.6625	101.404	98.5768	200.019
8.665	101.404	98.5803	200.016
8.6675	101.404	98.5837	200.012
8.67	101.404	98.5872	200.009
8.6725	101.404	98.5907	200.005
8.675	101.404	98.5941	200.002
8.6775	101.404	98.5976	199.998
8.68	101.404	98.6011	199.995
8.6825	101.404	98.6045	199.991
8.685	101.404	98.608	199.988
8.6875	101.404	98.6114	199.984
8.69	101.404	98.6149	199.981
8.6925	101.404	98.6184	199.977
8.695	101.404	98.6218	199.974
8.6975	101.404	98.6253	199.97
8.7	101.404	98.6288	199.967
8.7025	101.404	98.6322	199.964
8.705	101.404	98.6357	199.96
8.7075	101.404	98.6391	199.957
8.71	101.404	98.6426	199.954
8.7125	101.404	98.6461	199.95
8.715	101.404	98.6495	199.947
8.7175	101.403	98.653	199.944
8.72	101.403	98.6564	199.94
8.7225	101.403	98.6599	199.937
8.725	101.403	98.6634	199.934
8.7275	101.403	98.6668	199.931
8.73	101.402	98.6703	199.927
8.7325	101.402	98.6737	199.924
8.735	101.402	98.6772	199.921
8.7375	101.402	98.6807	199.918
8.74	101.401	98.6841	199.914
8.7425	101.401	98.6876	199.911
8.745	101.401	98.691	199.908
8.7475	101.401	98.6945	199.905
8.75	101.4	98.6979	199.902
8.7525	101.4	98.7014	199.899
8.755	101.4	98.7049	199.896
8.7575	101.399	98.7083	199.893
8.76	101.399	98.7118	199.889
8.7625	101.398	98.7152	199.886
8.765	101.398	98.7187	199.883
8.7675	101.398	98.7221	199.88
8.77	101.397	98.7256	199.877
8.7725	101.397	98.729	199.874
8.775	101.396	98.7325	199.871
8.7775	101.396	98.7359	199.868
8.78	101.395	98.7393	199.865
8.7825	101.395	98.7428	199.862
8.785	101.395	98.7462	199.859
8.7875	101.394	98.7497	199.856
8.79	101.394	98.7531	199.853
8.7925	101.393	98.7566	199.85
8.795	101.393	98.76	199.847
8.7975	101.392	98.7634	199.845
8.8	101.391	98.7669	199.842
8.8025	101.391	98.7703	199.839
8.805	101.39	98.7737	199.836
8.8075	101.39	98.7772	199.833
8.81	101.389	98.7806	199.83
8.8125	101.389	98.784	199.827
8.815	101.388	98.7875	199.825
8.8175	101.387	98.7909	199.822
8.82	101.387	98.7943	199.819
8.8225	101.386	98.7977	199.816
8.825	101.385	98.8012	199.813
8.8275	101.385	98.8046	199.811
8.83	101.384	98.808	199.808
8.8325	101.383	98.8114	199.805
8.835	101.383	98.8148	199.803
8.8375	101.382	98.8183	199.8
8.84	101.381	98.8217	199.797
8.8425	101.381	98.8251	199.794
8.845	101.38	98.8285	199.792
8.8475	101.379	98.8319	199.789
8.85	101.378	98.8353	199.786
8.8525	101.378	98.8387	199.784
8.855	101.377	98.8421	199.781
8.8575	101.376	98.8455	199.779
8.86	101.375	98.8489	199.776
8.8625	101.374	98.8523	199.773
8.865	101.374	98.8557	199.771
8.8675	101.373	98.8591	199.768
8.87	101.372	98.8625	199.766
8.8725	101.371	98.8659	199.763
8.875	101.37	98.8693	199.761
8.8775	101.369	98.8727	199.758
8.88	101.368	98.876	199.756
8.8825	101.368	98.8794	199.753
8.885	101.367	98.8828	199.751
8.8875	101.366	98.8862	199.748
8.89	101.365	98.8895	199.746
8.8925	101.364	98.8929	199.743
8.895	101.363	98.8963	199.741
8.8975	101.362	98.8997	199.738
8.9	101.361	98.903	199.736
8.9025	101.36	98.9064	199.733
8.905	101.359	98.9098	199.731
8.9075	101.358	98.9131	199.729
8.91	101.357	98.9165	199.726
8.9125	101.356	98.9198	199.724
8.915	101.355	98.9232	199.722
8.9175	101.354	98.9265	199.719
8.92	101.353	98.9299	199.717
8.9225	101.352	98.9332	199.715
8.925	101.351	98.9366	199.712
8.9275	101.35	98.9399	199.71
8.93	101.349	98.9432	199.708
8.9325	101.348	98.9466	199.705
8.935	101.347	98.9499	199.703
8.9375	101.346	98.9532	199.701
8.94	101.345	98.9566	199.699
8.9425	101.344	98.9599	199.696
8.945	101.343	98.9632	199.694
8.9475	101.341	98.9665	199.692
8.95	101.34	98.9699	199.69
8.9525	101.339	98.9732	199.688
8.955	101.338	98.9765	199.686
8.9575	101.337	98.9798	199.683
8.96	101.336	98.9831	199.681
8.9625	101.335	98.9864	199.679
8.965	101.333	98.9897	199.677
8.9675	101.332	98.993	199.675
8.97	101.331	98.9963	199.673
8.9725	101.33	98.9996	199.671
8.975	101.329	99.0029	199.669
8.9775	101.327	99.0062	199.666
8.98	101.326	99.0095	199.664
8.9825	101.325	99.0127	199.662
8.985	101.324	99.016	199.66
8.9875	101.322	99.0193	199.658
8.99	101.321	99.0226	199.656
8.9925	101.32	99.0258	199.654
8.995	101.319	99.0291	199.652
8.9975	101.317	99.0324	199.65
9	101.316	99.0356	199.648
9.0025	101.315	99.0389	199.646
9.005	101.313	99.0421	199.644
9.0075	101.312	99.0454	199.642
9.01	101.311	99.0486	199.64
9.0125	101.31	99.0519	199.639
9.015	101.308	99.0551	199.637
9.0175	101.307	99.0584	199.635
9.02	101.306	99.0616	199.633
9.0225	101.304	99.0648	199.631
9.025	101.303	99.068	199.629
9.0275	101.301	99.0713	199.627
9.03	101.3	99.0745	199.625
9.0325	101.299	99.0777	199.624
9.035	101.297	99.0809	199.622
9.0375	101.296	99.0841	199.62
9.04	101.295	99.0873	199.618
9.0425	101.293	99.0906	199.616
9.045	101.292	99.0938	199.615
9.0475	101.29	99.097	199.613
9.05	101.289	99.1001	199.611
9.0525	101.287	99.1033	199.609
9.055	101.286	99.1065	199.607
9.0575	101.285	99.1097	199.606
9.06	101.283	99.1129	199.604
9.0625	101.282	99.1161	199.602
9.065	101.28	99.1192	199.601
9.0675	101.279	99.1224	199.599
9.07	101.277	99.1256	199.597
9.0725	101.276	99.1287	199.596
9.075	101.274	99.1319	199.594
9.0775	101.273	99.1351	199.592
9.08	101.271	99.1382	199.591
9.0825	101.27	99.1414	199.589
9.085	101.268	99.1445	199.587
9.0875	101.267	99.1476	199.586
9.09	101.265	99.1508	199.584
9.0925	101.264	99.1539	199.582
9.095	101.262	99.1571	199.581
9.0975	101.261	99.1602	199.579
9.1	101.259	99.1633	199.578
9.1025	101.257	99.1664	199.576
9.105	101.256	99.1695	199.575
9.1075	101.254	99.1726	199.573
9.11	101.253	99.1758	199.572
9.1125	101.251	99.1789	199.57
9.115	101.25	99.182	199.569
9.1175	101.248	99.1851	199.567
9.12	101.246	99.1881	199.566
9.1225	101.245	99.1912	199.564
9.125	101.243	99.1943	199.563
9.1275	101.242	99.1974	199.561
9.13	101.24	99.2005	199.56
9.1325	101.238	99.2036	199.558
9.135	101.237	99.2066	199.557
9.1375	101.235	99.2097	199.555
9.14	101.233	99.2127	199.554
9.1425	101.232	99.2158	199.553
9.145	101.23	99.2189	199.551
9.1475	101.228	99.2219	199.55
9.15	101.227	99.225	199.548
9.1525	101.225	99.228	199.547
9.155	101.223	99.231	199.546
9.1575	101.222	99.2341	199.544
9.16	101.22	99.2371	199.543
9.1625	101.218	99.2401	199.542
9.165	101.217	99.2431	199.54
9.1675	101.215	99.2462	199.539
9.17	101.213	99.2492	199.538
9.1725	101.211	99.2522	199.536
9.175	101.21	99.2552	199.535
9.1775	101.208	99.2582	199.534
9.18	101.206	99.2612	199.533
9.1825	101.205	99.2642	199.531
9.185	101.203	99.2672	199.53
9.1875	101.201	99.2701	199.529
9.19	101.199	99.2731	199.528
9.1925	101.198	99.2761	199.526
9.195	101.196	99.2791	199.525
9.1975	101.194	99.282	199.524
9.2	101.192	99.285	199.523
9.2025	101.191	99.2879	199.522
9.205	101.189	99.2909	199.52
9.2075	101.187	99.2938	199.519
9.21	101.185	99.2968	199.518
9.2125	101.183	99.2997	199.517
9.215	101.182	99.3027	199.516
9.2175	101.18	99.3056	199.515
9.22	101.178	99.3085	199.513
9.2225	101.176	99.3114	199.512
9.225	101.174	99.3144	199.511
9.2275	101.173	99.3173	199.51
9.23	101.171	99.3202	199.509
9.2325	101.169	99.3231	199.508
9.235	101.167	99.326	199.507
9.2375	101.165	99.3289	199.506
9.24	101.163	99.3318	199.505
9.2425	101.162	99.3347	199.504
9.245	101.16	99.3375	199.503
9.2475	101.158	99.3404	199.502
9.25	101.156	99.3433	199.501
9.2525	101.154	99.3462	199.5
9.255	101.152	99.349	199.499
9.2575	101.15	99.3519	199.498
9.26	101.149	99.3547	199.497
9.2625	101.147	99.3576	199.496
9.265	101.145	99.3604	199.495
9.2675	101.143	99.3633	199.494
9.27	101.141	99.3661	199.493
9.2725	101.139	99.369	199.492
9.275	101.137	99.3718	199.491
9.2775	101.135	99.3746	199.49
9.28	101.134	99.3774	199.489
9.2825	101.132	99.3802	199.488
9.285	101.13	99.383	199.487
9.2875	101.128	99.3858	199.486
9.29	101.126	99.3886	199.485
9.2925	101.124	99.3914	199.485
9.295	101.122	99.3942	199.484
9.2975	101.12	99.397	199.483
9.3	101.118	99.3998	199.482
9.3025	101.116	99.4026	199.481
9.305	101.114	99.4054	199.48
9.3075	101.112	99.4081	199.479
9.31	101.111	99.4109	199.479
9.3125	101.109	99.4136	199.478
9.315	101.107	99.4164	199.477
9.3175	101.105	99.4191	199.476
9.32	101.103	99.4219	199.475
9.3225	101.101	99.4246	199.475
9.325	101.099	99.4274	199.474
9.3275	101.097	99.4301	199.473
9.33	101.095	99.4328	199.472
9.3325	101.093	99.4355	199.472
9.335	101.091	99.4382	199.471
9.3375	101.089	99.4409	199.47
9.34	101.087	99.4437	199.469
9.3425	101.085	99.4464	199.469
9.345	101.083	99.449	199.468
9.3475	101.081	99.4517	199.467
9.35	101.079	99.4544	199.466
9.3525	101.077	99.4571	199.466
9.355	101.075	99.4598	199.465
9.3575	101.073	99.4625	199.464
9.36	101.071	99.4651	199.464
9.3625	101.069	99.4678	199.463
9.365	101.067	99.4704	199.462
9.3675	101.065	99.4731	199.462
9.37	101.063	99.4757	199.461
9.3725	101.061	99.4784	199.461
9.375	101.059	99.481	199.46
9.3775	101.057	99.4836	199.459
9.38	101.055	99.4863	199.459
9.3825	101.053	99.4889	199.458
9.385	101.051	99.4915	199.457
9.3875	101.049	99.4941	199.457
9.39	101.047	99.4967	199.456
9.3925	101.045	99.4993	199.456
9.395	101.043	99.5019	199.455
9.3975	101.041	99.5045	199.455
9.4	101.039	99.5071	199.454
9.4025	101.037	99.5097	199.453
9.405	101.035	99.5123	199.453
9.4075	101.033	99.5148	199.452
9.41	101.031	99.5174	199.452
9.4125	101.029	99.52	199.451
9.415	101.027	99.5225	199.451
9.4175	101.025	99.5251	199.45
9.42	101.023	99.5276	199.45
9.4225	101.02	99.5302	199.449
9.425	101.018	99.5327	199.449
9.4275	101.016	99.5352	199.448
9.43	101.014	99.5378	199.448
9.4325	101.012	99.5403	199.447
9.435	101.01	99.5428	199.447
9.4375	101.008	99.5453	199.447
9.44	101.006	99.5478	199.446
9.4425	101.004	99.5503	199.446
9.445	101.002	99.5528	199.445
9.4475	101	99.5553	199.445
9.45	100.998	99.5578	199.444
9.4525	100.996	99.5603	199.444
9.455	100.994	99.5627	199.444
9.4575	100.992	99.5652	199.443
9.46	100.989	99.5677	199.443
9.4625	100.987	99.5701	199.442
9.465	100.985	99.5726	199.442
9.4675	100.983	99.575	199.442
9.47	100.981	99.5775	199.441
9.4725	100.979	99.5799	199.441
9.475	100.977	99.5824	199.441
9.4775	100.975	99.5848	199.44
9.48	100.973	99.5872	199.44
9.4825	100.971	99.5896	199.44
9.485	100.969	99.5921	199.439
9.4875	100.967	99.5945	199.439
9.49	100.964	99.5969	199.439
9.4925	100.962	99.5993	199.438
9.495	100.96	99.6017	199.438
9.4975	100.958	99.604	199.438
9.5	100.956	99.6064	199.438
9.5025	100.954	99.6088	199.437
9.505	100.952	99.6112	199.437
9.5075	100.95	99.6135	199.437
9.51	100.948	99.6159	199.436
9.5125	100.946	99.6183	199.436
9.515	100.943	99.6206	199.436
9.5175	100.941	99.623	199.436
9.52	100.939	99.6253	199.435
9.5225	100.937	99.6276	199.435
9.525	100.935	99.63	199.435
9.5275	100.933	99.6323	199.435
9.53	100.931	99.6346	199.435
9.5325	100.929	99.6369	199.434
9.535	100.927	99.6393	199.434
9.5375	100.924	99.6416	199.434
9.54	100.922	99.6439	199.434
9.5425	100.92	99.6462	199.434
9.545	100.918	99.6484	199.433
9.5475	100.916	99.6507	199.433
9.55	100.914	99.653	199.433
9.5525	100.912	99.6553	199.433
9.555	100.91	99.6575	199.433
9.5575	100.907	99.6598	199.433
9.56	100.905	99.6621	199.433
9.5625	100.903	99.6643	199.432
9.565	100.901	99.6666	199.432
9.5675	100.899	99.6688	199.432
9.57	100.897	99.6711	199.432
9.5725	100.895	99.6733	199.432
9.575	100.893	99.6755	199.432
9.5775	100.891	99.6777	199.432
9.58	100.888	99.6799	199.432
9.5825	100.886	99.6822	199.432
9.585	100.884	99.6844	199.431
9.5875	100.882	99.6866	199.431
9.59	100.88	99.6888	199.431
9.5925	100.878	99.691	199.431
9.595	100.876	99.6931	199.431
9.5975	100.874	99.6953	199.431
9.6	100.871	99.6975	199.431
9.6025	100.869	99.6997	199.431
9.605	100.867	99.7018	199.431
9.6075	100.865	99.704	199.431
9.61	100.863	99.7061	199.431
9.6125	100.861	99.7083	199.431
9.615	100.859	99.7104	199.431
9.6175	100.856	99.7126	199.431
9.62	100.854	99.7147	199.431
9.6225	100.852	99.7168	199.431
9.625	100.85	99.7189	199.431
9.6275	100.848	99.7211	199.431
9.63	100.846	99.7232	199.431
9.6325	100.844	99.7253	199.431
9.635	100.842	99.7274	199.431
9.6375	100.839	99.7295	199.431
9.64	100.837	99.7316	199.431
9.6425	100.835	99.7337	199.431
9.645	100.833	99.7357	199.431
9.6475	100.831	99.7378	199.431
9.65	100.829	99.7399	199.431
9.6525	100.827	99.7419	199.431
9.655	100.825	99.744	199.431
9.6575	100.822	99.7461	199.431
9.66	100.82	99.7481	199.432
9.6625	100.818	99.7501	199.432
9.665	100.816	99.7522	199.432
9.6675	100.814	99.7542	199.432
9.67	100.812	99.7562	199.432
9.6725	100.81	99.7583	199.432
9.675	100.808	99.7603	199.432
9.6775	100.805	99.7623	199.432
9.68	100.803	99.7643	199.432
9.6825	100.801	99.7663	199.432
9.685	100.799	99.7683	199.433
9.6875	100.797	99.7703	199.433
9.69	100.795	99.7723	199.433
9.6925	100.793	99.7743	199.433
9.695	100.791	99.7762	199.433
9.6975	100.788	99.7782	199.433
9.7	100.786	99.7802	199.433
9.7025	100.784	99.7821	199.434
9.705	100.782	99.7841	199.434
9.7075	100.78	99.786	199.434
9.71	100.778	99.788	199.434
9.7125	100.776	99.7899	199.434
9.715	100.774	99.7918	199.435
9.7175	100.772	99.7938	199.435
9.72	100.769	99.7957	199.435
9.7225	100.767	99.7976	199.435
9.725	100.765	99.7995	199.435
9.7275	100.763	99.8014	199.436
9.73	100.761	99.8033	199.436
9.7325	100.759	99.8052	199.436
9.735	100.757	99.8071	199.436
9.7375	100.755	99.809	199.436
9.74	100.753	99.8109	199.437
9.7425	100.75	99.8127	199.437
9.745	100.748	99.8146	199.437
9.7475	100.746	99.8165	199.437
9.75	100.744	99.8183	199.438
9.7525	100.742	99.8202	199.438
9.755	100.74	99.822	199.438
9.7575	100.738	99.8239	199.438
9.76	100.736	99.8257	199.439
9.7625	100.734	99.8276	199.439
9.765	100.731	99.8294	199.439
9.7675	100.729	99.8312	199.439
9.77	100.727	99.833	199.44
9.7725	100.725	99.8348	199.44
9.775	100.723	99.8366	199.44
9.7775	100.721	99.8385	199.441
9.78	100.719	99.8402	199.441
9.7825	100.717	99.842	199.441
9.785	100.715	99.8438	199.441
9.7875	100.713	99.8456	199.442
9.79	100.711	99.8474	199.442
9.7925	100.708	99.8492	199.442
9.795	100.706	99.8509	199.443
9.7975	100.704	99.8527	199.443
9.8	100.702	99.8544	199.443
9.8025	100.7	99.8562	199.444
9.805	100.698	99.8579	199.444
9.8075	100.696	99.8597	199.444
9.81	100.694	99.8614	199.445
9.8125	100.692	99.8631	199.445
9.815	100.69	99.8649	199.445
9.8175	100.688	99.8666	199.446
9.82	100.686	99.8683	199.446
9.8225	100.683	99.87	199.447
9.825	100.681	99.8717	199.447
9.8275	100.679	99.8734	199.447
9.83	100.677	99.8751	199.448
9.8325	100.675	99.8768	199.448
9.835	100.673	99.8785	199.448
9.8375	100.671	99.8802	199.449
9.84	100.669	99.8818	199.449
9.8425	100.667	99.8835	199.45
9.845	100.665	99.8852	199.45
9.8475	100.663	99.8868	199.45
9.85	100.661	99.8885	199.451
9.8525	100.659	99.8901	199.451
9.855	100.657	99.8918	199.452
9.8575	100.655	99.8934	199.452
9.86	100.653	99.895	199.452
9.8625	100.65	99.8967	199.453
9.865	100.648	99.8983	199.453
9.8675	100.646	99.8999	199.454
9.87	100.644	99.9015	199.454
9.8725	100.642	99.9031	199.455
9.875	100.64	99.9047	199.455
9.8775	100.638	99.9063	199.456
9.88	100.636	99.9079	199.456
9.8825	100.634	99.9095	199.456
9.885	100.632	99.9111	199.457
9.8875	100.63	99.9126	199.457
9.89	100.628	99.9142	199.458
9.8925	100.626	99.9158	199.458
9.895	100.624	99.9173	199.459
9.8975	100.622	99.9189	199.459
9.9	100.62	99.9204	199.46
9.9025	100.618	99.922	199.46
9.905	100.616	99.9235	199.461
9.9075	100.614	99.9251	199.461
9.91	100.612	99.9266	199.462
9.9125	100.61	99.9281	199.462
9.915	100.608	99.9296	199.463
9.9175	100.606	99.9312	199.463
9.92	100.604	99.9327	199.464
9.9225	100.602	99.9342	199.464
9.925	100.6	99.9357	199.465
9.9275	100.598	99.9372	199.465
9.93	100.596	99.9387	199.466
9.9325	100.594	99.9402	199.466
9.935	100.592	99.9416	199.467
9.9375	100.59	99.9431	199.467
9.94	100.588	99.9446	199.468
9.9425	100.586	99.946	199.468
9.945	100.584	99.9475	199.469
9.9475	100.582	99.949	199.469
9.95	100.58	99.9504	199.47
9.9525	100.578	99.9519	199.47
9.955	100.576	99.9533	199.471
9.9575	100.574	99.9547	199.471
9.96	100.572	99.9562	199.472
9.9625	100.57	99.9576	199.473
9.965	100.568	99.959	199.473
9.9675	100.566	99.9604	199.474
9.97	100.564	99.9618	199.474
9.9725	100.562	99.9633	199.475
9.975	100.56	99.9647	199.475
9.9775	100.558	99.9661	199.476
9.98	100.556	99.9674	199.476
9.9825	100.554	99.9688	199.477
9.985	100.552	99.9702	199.478
9.9875	100.55	99.9716	199.478
9.99	100.548	99.973	199.479
9.9925	100.546	99.9743	199.479
9.995	100.544	99.9757	199.48
9.9975	100.542	99.9771	199.481
10	100.54	99.9784	199.481
10.0025	100.538	99.9798	199.482
10.005	100.537	99.9811	199.482
10.0075	100.535	99.9824	199.483
10.01	100.533	99.9838	199.484
10.0125	100.531	99.9851	199.484
10.015	100.529	99.9864	199.485
10.0175	100.527	99.9877	199.485
10.02	100.525	99.9891	199.486
10.0225	100.523	99.9904	199.487
10.025	100.521	99.9917	199.487
10.0275	100.519	99.993	199.488
10.03	100.517	99.9943	199.488
10.0325	100.515	99.9956	199.489
10.035	100.513	99.9968	199.49
10.0375	100.512	99.9981	199.49
10.04	100.51	99.9994	199.491
10.0425	100.508	100.001	199.492
10.045	100.506	100.002	199.492
10.0475	100.504	100.003	199.493
10.05	100.502	100.004	199.494
10.0525	100.5	100.006	199.494
10.055	100.498	100.007	199.495
10.0575	100.496	100.008	199.496
10.06	100.494	100.009	199.496
10.0625	100.493	100.011	199.497
10.065	100.491	100.012	199.497
10.0675	100.489	100.013	199.498
10.07	100.487	100.014	199.499
10.0725	100.485	100.016	199.499
10.075	100.483	100.017	199.5
10.0775	100.481	100.018	199.501
10.08	100.479	100.019	199.501
10.0825	100.477	100.02	199.502
10.085	100.476	100.022	199.503
10.0875	100.474	100.023	199.503
10.09	100.472	100.024	199.504
10.0925	100.47	100.025	199.505
10.095	100.468	100.026	199.506
10.0975	100.466	100.027	199.506
10.1	100.464	100.029	199.507
10.1025	100.463	100.03	199.508
10.105	100.461	100.031	199.508
10.1075	100.459	100.032	199.509
10.11	100.457	100.033	199.51
10.1125	100.455	100.034	199.51
10.115	100.453	100.036	199.511
10.1175	100.452	100.037	199.512
10.12	100.45	100.038	199.512
10.1225	100.448	100.039	199.513
10.125	100.446	100.04	199.514
10.1275	100.444	100.041	199.515
10.13	100.442	100.042	199.515
10.1325	100.441	100.043	199.516
10.135	100.439	100.044	199.517
10.1375	100.437	100.046	199.517
10.14	100.435	100.047	199.518
10.1425	100.433	100.048	199.519
10.145	100.432	100.049	199.52
10.1475	100.43	100.05	199.52
10.15	100.428	100.051	199.521
10.1525	100.426	100.052	199.522
10.155	100.424	100.053	199.522
10.1575	100.423	100.054	199.523
10.16	100.421	100.055	199.524
10.1625	100.419	100.056	199.525
10.165	100.417	100.057	199.525
10.1675	100.416	100.058	199.526
10.17	100.414	100.059	199.527
10.1725	100.412	100.06	199.528
10.175	100.41	100.061	199.528
10.1775	100.408	100.062	199.529
10.18	100.407	100.063	199.53
10.1825	100.405	100.064	199.531
10.185	100.403	100.065	199.531
10.1875	100.401	100.066	199.532
10.19	100.4	100.067	199.533
10.1925	100.398	100.068	199.534
10.195	100.396	100.069	199.534
10.1975	100.394	100.07	199.535
10.2	100.393	100.071	199.536
10.2025	100.391	100.072	199.537
10.205	100.389	100.073	199.537
10.2075	100.387	100.074	199.538
10.21	100.386	100.075	199.539
10.2125	100.384	100.076	199.54
10.215	100.382	100.077	199.54
10.2175	100.381	100.078	199.541
10.22	100.379	100.079	199.542
10.2225	100.377	100.08	199.543
10.225	100.375	100.081	199.544
10.2275	100.374	100.082	199.544
10.23	100.372	100.083	199.545
10.2325	100.37	100.084	199.546
10.235	100.369	100.085	199.547
10.2375	100.367	100.086	199.547
10.24	100.365	100.087	199.548
10.2425	100.363	100.088	199.549
10.245	100.362	100.088	199.55
10.2475	100.36	100.089	199.551
10.25	100.358	100.09	199.551
10.2525	100.357	100.091	199.552
10.255	100.355	100.092	199.553
10.2575	100.353	100.093	199.554
10.26	100.352	100.094	199.555
10.2625	100.35	100.095	199.555
10.265	100.348	100.096	199.556
10.2675	100.347	100.096	199.557
10.27	100.345	100.097	199.558
10.2725	100.343	100.098	199.558
10.275	100.342	100.099	199.559
10.2775	100.34	100.1	199.56
10.28	100.338	100.101	199.561
10.2825	100.337	100.102	199.562
10.285	100.335	100.102	199.562
10.2875	100.333	100.103	199.563
10.29	100.332	100.104	199.564
10.2925	100.33	100.105	199.565
10.295	100.329	100.106	199.566
10.2975	100.327	100.107	199.567
10.3	100.325	100.107	199.567
10.3025	100.324	100.108	199.568
10.305	100.322	100.109	199.569
10.3075	100.32	100.11	199.57
10.31	100.319	100.111	199.571
10.3125	100.317	100.111	199.571
10.315	100.316	100.112	199.572
10.3175	100.314	100.113	199.573
10.32	100.312	100.114	199.574
10.3225	100.311	100.115	199.575
10.325	100.309	100.115	199.575
10.3275	100.308	100.116	199.576
10.33	100.306	100.117	199.577
10.3325	100.304	100.118	199.578
10.335	100.303	100.118	199.579
10.3375	100.301	100.119	199.58
10.34	100.3	100.12	199.58
10.3425	100.298	100.121	199.581
10.345	100.297	100.121	199.582
10.3475	100.295	100.122	199.583
10.35	100.293	100.123	199.584
10.3525	100.292	100.124	199.585
10.355	100.29	100.124	199.585
10.3575	100.289	100.125	199.586
10.36	100.287	100.126	199.587
10.3625	100.286	100.126	199.588
10.365	100.284	100.127	199.589
10.3675	100.283	100.128	199.59
10.37	100.281	100.129	199.59
10.3725	100.28	100.129	199.591
10.375	100.278	100.13	199.592
10.3775	100.276	100.131	199.593
10.38	100.275	100.131	199.594
10.3825	100.273	100.132	199.595
10.385	100.272	100.133	199.595
10.3875	100.27	100.133	199.596
10.39	100.269	100.134	199.597
10.3925	100.267	100.135	199.598
10.395	100.266	100.135	199.599
10.3975	100.264	100.136	199.6
10.4	100.263	100.137	199.6
10.4025	100.261	100.137	199.601
10.405	100.26	100.138	199.602
10.4075	100.258	100.139	199.603
10.41	100.257	100.139	199.604
10.4125	100.255	100.14	199.605
10.415	100.254	100.141	199.605
10.4175	100.252	100.141	199.606
10.42	100.251	100.142	199.607
10.4225	100.249	100.143	199.608
10.425	100.248	100.143	199.609
10.4275	100.247	100.144	199.61
10.43	100.245	100.144	199.611
10.4325	100.244	100.145	199.611
10.435	100.242	100.146	199.612
10.4375	100.241	100.146	199.613
10.44	100.239	100.147	199.614
10.4425	100.238	100.147	199.615
10.445	100.236	100.148	199.616
10.4475	100.235	100.149	199.616
10.45	100.233	100.149	199.617
10.4525	100.232	100.15	199.618
10.455	100.231	100.15	199.619
10.4575	100.229	100.151	199.62
10.46	100.228	100.151	199.621
10.4625	100.226	100.152	199.622
10.465	100.225	100.153	199.622
10.4675	100.224	100.153	199.623
10.47	100.222	100.154	199.624
10.4725	100.221	100.154	199.625
10.475	100.219	100.155	199.626
10.4775	100.218	100.155	199.627
10.48	100.216	100.156	199.628
10.4825	100.215	100.156	199.628
10.485	100.214	100.157	199.629
10.4875	100.212	100.158	199.63
10.49	100.211	100.158	199.631
10.4925	100.21	100.159	199.632
10.495	100.208	100.159	199.633
10.4975	100.207	100.16	199.634
10.5	100.205	100.16	199.634
10.5025	100.204	100.161	199.635
10.505	100.203	100.161	199.636
10.5075	100.201	100.162	199.637
10.51	100.2	100.162	199.638
10.5125	100.199	100.163	199.639
10.515	100.197	100.163	199.64
10.5175	100.196	100.164	199.64
10.52	100.195	100.164	199.641
10.5225	100.193	100.165	199.642
10.525	100.192	100.165	199.643
10.5275	100.191	100.166	199.644
10.53	100.189	100.166	199.645
10.5325	100.188	100.167	199.646
10.535	100.187	100.167	199.646
10.5375	100.185	100.167	199.647
10.54	100.184	100.168	199.648
10.5425	100.183	100.168	199.649
10.545	100.181	100.169	199.65
10.5475	100.18	100.169	199.651
10.55	100.179	100.17	199.652
10.5525	100.177	100.17	199.652
10.555	100.176	100.171	199.653
10.5575	100.175	100.171	199.654
10.56	100.173	100.172	199.655
10.5625	100.172	100.172	199.656
10.565	100.171	100.172	199.657
10.5675	100.17	100.173	199.658
10.57	100.168	100.173	199.658
10.5725	100.167	100.174	199.659
10.575	100.166	100.174	199.66
10.5775	100.164	100.174	199.661
10.58	100.163	100.175	199.662
10.5825	100.162	100.175	199.663
10.585	100.161	100.176	199.664
10.5875	100.159	100.176	199.664
10.59	100.158	100.177	199.665
10.5925	100.157	100.177	199.666
10.595	100.156	100.177	199.667
10.5975	100.154	100.178	199.668
10.6	100.153	100.178	199.669
10.6025	100.152	100.178	199.67
10.605	100.151	100.179	199.671
10.6075	100.149	100.179	199.671
10.61	100.148	100.18	199.672
10.6125	100.147	100.18	199.673
10.615	100.146	100.18	199.674
10.6175	100.145	100.181	199.675
10.62	100.143	100.181	199.676
10.6225	100.142	100.181	199.677
10.625	100.141	100.182	199.677
10.6275	100.14	100.182	199.678
10.63	100.138	100.182	199.679
10.6325	100.137	100.183	199.68
10.635	100.136	100.183	199.681
10.6375	100.135	100.183	199.682
10.64	100.134	100.184	199.683
10.6425	100.132	100.184	199.683
10.645	100.131	100.184	199.684
10.6475	100.13	100.185	199.685
10.65	100.129	100.185	199.686
10.6525	100.128	100.185	199.687
10.655	100.127	100.186	199.688
10.6575	100.125	100.186	199.689
10.66	100.124	100.186	199.689
10.6625	100.123	100.187	199.69
10.665	100.122	100.187	199.691
10.6675	100.121	100.187	199.692
10.67	100.12	100.188	199.693
10.6725	100.118	100.188	199.694
10.675	100.117	100.188	199.694
10.6775	100.116	100.189	199.695
10.68	100.115	100.189	199.696
10.6825	100.114	100.189	199.697
10.685	100.113	100.189	199.698
10.6875	100.112	100.19	199.699
10.69	100.11	100.19	199.7
10.6925	100.109	100.19	199.7
10.695	100.108	100.19	199.701
10.6975	100.107	100.191	199.702
10.7	100.106	100.191	199.703
10.7025	100.105	100.191	199.704
10.705	100.104	100.192	199.705
10.7075	100.103	100.192	199.706
10.71	100.102	100.192	199.706
10.7125	100.1	100.192	199.707
10.715	100.099	100.193	199.708
10.7175	100.098	100.193	199.709
10.72	100.097	100.193	199.71
10.7225	100.096	100.193	199.711
10.725	100.095	100.194	199.711
10.7275	100.094	100.194	199.712
10.73	100.093	100.194	199.713
10.7325	100.092	100.194	199.714
10.735	100.091	100.194	199.715
10.7375	100.09	100.195	199.716
10.74	100.089	100.195	199.717
10.7425	100.088	100.195	199.717
10.745	100.086	100.195	199.718
10.7475	100.085	100.196	199.719
10.75	100.084	100.196	199.72
10.7525	100.083	100.196	199.721
10.755	100.082	100.196	199.722
10.7575	100.081	100.196	199.722
10.76	100.08	100.197	199.723
10.7625	100.079	100.197	199.724
10.765	100.078	100.197	199.725
10.7675	100.077	100.197	199.726
10.77	100.076	100.197	199.727
10.7725	100.075	100.198	199.727
10.775	100.074	100.198	199.728
10.7775	100.073	100.198	199.729
10.78	100.072	100.198	199.73
10.7825	100.071	100.198	199.731
10.785	100.07	100.198	199.732
10.7875	100.069	100.199	199.732
10.79	100.068	100.199	199.733
10.7925	100.067	100.199	199.734
10.795	100.066	100.199	199.735
10.7975	100.065	100.199	199.736
10.8	100.064	100.199	199.737
10.8025	100.063	100.2	199.737
10.805	100.062	100.2	199.738
10.8075	100.061	100.2	199.739
10.81	100.06	100.2	199.74
10.8125	100.059	100.2	199.741
10.815	100.058	100.2	199.742
10.8175	100.057	100.201	199.742
10.82	100.056	100.201	199.743
10.8225	100.055	100.201	199.744
10.825	100.054	100.201	199.745
10.8275	100.053	100.201	199.746
10.83	100.052	100.201	199.746
10.8325	100.051	100.201	199.747
10.835	100.05	100.201	199.748
10.8375	100.049	100.202	199.749
10.84	100.049	100.202	199.75
10.8425	100.048	100.202	199.751
10.845	100.047	100.202	199.751
10.8475	100.046	100.202	199.752
10.85	100.045	100.202	199.753
10.8525	100.044	100.202	199.754
10.855	100.043	100.202	199.755
10.8575	100.042	100.203	199.755
10.86	100.041	100.203	199.756
10.8625	100.04	100.203	199.757
10.865	100.039	100.203	199.758
10.8675	100.038	100.203	199.759
10.87	100.037	100.203	199.759
10.8725	100.037	100.203	199.76
10.875	100.036	100.203	199.761
10.8775	100.035	100.203	199.762
10.88	100.034	100.203	199.763
10.8825	100.033	100.203	199.764
10.885	100.032	100.204	199.764
10.8875	100.031	100.204	199.765
10.89	100.03	100.204	199.766
10.8925	100.029	100.204	199.767
10.895	100.029	100.204	199.768
10.8975	100.028	100.204	199.768
10.9	100.027	100.204	199.769
10.9025	100.026	100.204	199.77
10.905	100.025	100.204	199.771
10.9075	100.024	100.204	199.772
10.91	100.023	100.204	199.772
10.9125	100.023	100.204	199.773
10.915	100.022	100.204	199.774
10.9175	100.021	100.204	199.775
10.92	100.02	100.204	199.775
10.9225	100.019	100.205	199.776
10.925	100.018	100.205	199.777
10.9275	100.018	100.205	199.778
10.93	100.017	100.205	199.779
10.9325	100.016	100.205	199.779
10.935	100.015	100.205	199.78
10.9375	100.014	100.205	199.781
10.94	100.013	100.205	199.782
10.9425	100.013	100.205	199.783
10.945	100.012	100.205	199.783
10.9475	100.011	100.205	199.784
10.95	100.01	100.205	199.785
10.9525	100.009	100.205	199.786
10.955	100.009	100.205	199.786
10.9575	100.008	100.205	199.787
10.96	100.007	100.205	199.788
10.9625	100.006	100.205	199.789
10.965	100.005	100.205	199.79
10.9675	100.005	100.205	199.79
10.97	100.004	100.205	199.791
10.9725	100.003	100.205	199.792
10.975	100.002	100.205	199.793
10.9775	100.001	100.205	199.793
10.98	100.001	100.205	199.794
10.9825	99.9999	100.205	199.795
10.985	99.9992	100.205	199.796
10.9875	99.9984	100.205	199.797
10.99	99.9976	100.205	199.797
10.9925	99.9969	100.205	199.798
10.995	99.9961	100.205	199.799
10.9975	99.9954	100.205	199.8
11	99.9946	100.205	199.8
11.0025	99.9939	100.205	199.801
11.005	99.9931	100.205	199.802
11.0075	99.9924	100.205	199.803
11.01	99.9916	100.205	199.803
11.0125	99.9909	100.205	199.804
11.015	99.9902	100.205	199.805
11.0175	99.9894	100.205	199.806
11.02	99.9887	100.205	199.806
11.0225	99.988	100.205	199.807
11.025	99.9873	100.205	199.808
11.0275	99.9865	100.205	199.809
11.03	99.9858	100.205	199.809
11.0325	99.9851	100.205	199.81
11.035	99.9844	100.205	199.811
11.0375	99.9837	100.205	199.812
11.04	99.983	100.205	199.812
11.0425	99.9823	100.205	199.813
11.045	99.9816	100.204	199.814
11.0475	99.9809	100.204	199.815
11.05	99.9802	100.204	199.815
11.0525	99.9795	100.204	199.816
11.055	99.9788	100.204	199.817
11.0575	99.9781	100.204	199.818
11.06	99.9775	100.204	199.818
11.0625	99.9768	100.204	199.819
11.065	99.9761	100.204	199.82
11.0675	99.9754	100.204	199.821
11.07	99.9748	100.204	199.821
11.0725	99.9741	100.204	199.822
11.075	99.9734	100.204	199.823
11.0775	99.9728	100.204	199.823
11.08	99.9721	100.204	199.824
11.0825	99.9714	100.204	199.825
11.085	99.9708	100.204	199.826
11.0875	99.9701	100.203	199.826
11.09	99.9695	100.203	199.827
11.0925	99.9688	100.203	199.828
11.095	99.9682	100.203	199.829
11.0975	99.9676	100.203	199.829
11.1	99.9669	100.203	199.83
11.1025	99.9663	100.203	199.831
11.105	99.9656	100.203	199.831
11.1075	99.965	100.203	199.832
11.11	99.9644	100.203	199.833
11.1125	99.9638	100.203	199.834
11.115	99.9631	100.203	199.834
11.1175	99.9625	100.202	199.835
11.12	99.9619	100.202	199.836
11.1225	99.9613	100.202	199.836
11.125	99.9607	100.202	199.837
11.1275	99.9601	100.202	199.838
11.13	99.9595	100.202	199.839
11.1325	99.9589	100.202	199.839
11.135	99.9583	100.202	199.84
11.1375	99.9577	100.202	199.841
11.14	99.9571	100.202	199.841
11.1425	99.9565	100.201	199.842
11.145	99.9559	100.201	199.843
11.1475	99.9553	100.201	199.843
11.15	99.9547	100.201	199.844
11.1525	99.9541	100.201	199.845
11.155	99.9535	100.201	199.846
11.1575	99.953	100.201	199.846
11.16	99.9524	100.201	199.847
11.1625	99.9518	100.201	199.848
11.165	99.9512	100.2	199.848
11.1675	99.9507	100.2	199.849
11.17	99.9501	100.2	199.85
11.1725	99.9496	100.2	199.85
11.175	99.949	100.2	199.851
11.1775	99.9484	100.2	199.852
11.18	99.9479	100.2	199.852
11.1825	99.9473	100.2	199.853
11.185	99.9468	100.199	199.854
11.1875	99.9462	100.199	199.855
11.19	99.9457	100.199	199.855
11.1925	99.9452	100.199	199.856
11.195	99.9446	100.199	199.857
11.1975	99.9441	100.199	199.857
11.2	99.9435	100.199	199.858
11.2025	99.943	100.198	199.859
11.205	99.9425	100.198	199.859
11.2075	99.942	100.198	199.86
11.21	99.9414	100.198	199.861
11.2125	99.9409	100.198	199.861
11.215	99.9404	100.198	199.862
11.2175	99.9399	100.198	199.863
11.22	99.9394	100.197	199.863
11.2225	99.9389	100.197	199.864
11.225	99.9383	100.197	199.865
11.2275	99.9378	100.197	199.865
11.23	99.9373	100.197	199.866
11.2325	99.9368	100.197	199.867
11.235	99.9363	100.196	199.867
11.2375	99.9358	100.196	199.868
11.24	99.9353	100.196	199.869
11.2425	99.9348	100.196	199.869
11.245	99.9344	100.196	199.87
11.2475	99.9339	100.196	199.87
11.25	99.9334	100.195	199.871
11.2525	99.9329	100.195	199.872
11.255	99.9324	100.195	199.872
11.2575	99.932	100.195	199.873
11.26	99.9315	100.195	199.874
11.2625	99.931	100.195	199.874
11.265	99.9305	100.194	199.875
11.2675	99.9301	100.194	199.876
11.27	99.9296	100.194	199.876
11.2725	99.9291	100.194	199.877
11.275	99.9287	100.194	199.878
11.2775	99.9282	100.194	199.878
11.28	99.9278	100.193	199.879
11.2825	99.9273	100.193	199.879
11.285	99.9269	100.193	199.88
11.2875	99.9264	100.193	199.881
11.29	99.926	100.193	199.881
11.2925	99.9255	100.192	199.882
11.295	99.9251	100.192	199.883
11.2975	99.9247	100.192	199.883
11.3	99.9242	100.192	199.884
11.3025	99.9238	100.192	199.885
11.305	99.9233	100.192	199.885
11.3075	99.9229	100.191	199.886
11.31	99.9225	100.191	199.886
11.3125	99.9221	100.191	199.887
11.315	99.9216	100.191	199.888
11.3175	99.9212	100.191	199.888
11.32	99.9208	100.19	199.889
11.3225	99.9204	100.19	199.889
11.325	99.92	100.19	199.89
11.3275	99.9196	100.19	199.891
11.33	99.9192	100.19	199.891
11.3325	99.9188	100.189	199.892
11.335	99.9184	100.189	199.893
11.3375	99.9179	100.189	199.893
11.34	99.9176	100.189	199.894
11.3425	99.9172	100.189	199.894
11.345	99.9168	100.188	199.895
11.3475	99.9164	100.188	199.896
11.35	99.916	100.188	199.896
11.3525	99.9156	100.188	199.897
11.355	99.9152	100.187	199.897
11.3575	99.9148	100.187	199.898
11.36	99.9144	100.187	199.899
11.3625	99.9141	100.187	199.899
11.365	99.9137	100.187	199.9
11.3675	99.9133	100.186	199.9
11.37	99.9129	100.186	199.901
11.3725	99.9126	100.186	199.901
11.375	99.9122	100.186	199.902
11.3775	99.9118	100.186	199.903
11.38	99.9115	100.185	199.903
11.3825	99.9111	100.185	199.904
11.385	99.9107	100.185	199.904
11.3875	99.9104	100.185	199.905
11.39	99.91	100.184	199.906
11.3925	99.9097	100.184	199.906
11.395	99.9093	100.184	199.907
11.3975	99.909	100.184	199.907
11.4	99.9086	100.183	199.908
11.4025	99.9083	100.183	199.908
11.405	99.908	100.183	199.909
11.4075	99.9076	100.183	199.91
11.41	99.9073	100.183	199.91
11.4125	99.9069	100.182	199.911
11.415	99.9066	100.182	199.911
11.4175	99.9063	100.182	199.912
11.42	99.9059	100.182	199.912
11.4225	99.9056	100.181	199.913
11.425	99.9053	100.181	199.914
11.4275	99.905	100.181	199.914
11.43	99.9047	100.181	199.915
11.4325	99.9043	100.18	199.915
11.435	99.904	100.18	199.916
11.4375	99.9037	100.18	199.916
11.44	99.9034	100.18	199.917
11.4425	99.9031	100.179	199.917
11.445	99.9028	100.179	199.918
11.4475	99.9025	100.179	199.919
11.45	99.9022	100.179	199.919
11.4525	99.9019	100.178	199.92
11.455	99.9016	100.178	199.92
11.4575	99.9013	100.178	199.921
11.46	99.901	100.178	199.921
11.4625	99.9007	100.178	199.922
11.465	99.9004	100.177	199.922
11.4675	99.9001	100.177	199.923
11.47	99.8998	100.177	199.923
11.4725	99.8995	100.177	199.924
11.475	99.8992	100.176	199.925
11.4775	99.899	100.176	199.925
11.48	99.8987	100.176	199.926
11.4825	99.8984	100.175	199.926
11.485	99.8981	100.175	199.927
11.4875	99.8978	100.175	199.927
11.49	99.8976	100.175	199.928
11.4925	99.8973	100.174	199.928
11.495	99.897	100.174	199.929
11.4975	99.8968	100.174	199.929
11.5	99.8965	100.174	199.93
11.5025	99.8962	100.173	199.93
11.505	99.896	100.173	199.931
11.5075	99.8957	100.173	199.931
11.51	99.8955	100.173	199.932
11.5125	99.8952	100.172	199.932
11.515	99.895	100.172	199.933
11.5175	99.8947	100.172	199.933
11.52	99.8945	100.172	199.934
11.5225	99.8942	100.171	199.934
11.525	99.894	100.171	199.935
11.5275	99.8937	100.171	199.935
11.53	99.8935	100.171	199.936
11.5325	99.8933	100.17	199.936
11.535	99.893	100.17	199.937
11.5375	99.8928	100.17	199.937
11.54	99.8925	100.169	199.938
11.5425	99.8923	100.169	199.938
11.545	99.8921	100.169	199.939
11.5475	99.8919	100.169	199.939
11.55	99.8916	100.168	199.94
11.5525	99.8914	100.168	199.94
11.555	99.8912	100.168	199.941
11.5575	99.891	100.168	199.941
11.56	99.8908	100.167	199.942
11.5625	99.8905	100.167	199.942
11.565	99.8903	100.167	199.943
11.5675	99.8901	100.166	199.943
11.57	99.8899	100.166	199.944
11.5725	99.8897	100.166	199.944
11.575	99.8895	100.166	199.945
11.5775	99.8893	100.165	199.945
11.58	99.8891	100.165	199.946
11.5825	99.8889	100.165	199.946
11.585	99.8887	100.165	199.947
11.5875	99.8885	100.164	199.947
11.59	99.8883	100.164	199.948
11.5925	99.8881	100.164	199.948
11.595	99.8879	100.163	199.949
11.5975	99.8877	100.163	199.949
11.6	99.8875	100.163	199.95
11.6025	99.8873	100.163	199.95
11.605	99.8871	100.162	199.951
11.6075	99.887	100.162	199.951
11.61	99.8868	100.162	199.952
11.6125	99.8866	100.161	199.952
11.615	99.8864	100.161	199.952
11.6175	99.8862	100.161	199.953
11.62	99.8861	100.161	199.953
11.6225	99.8859	100.16	199.954
11.625	99.8857	100.16	199.954
11.6275	99.8855	100.16	199.955
11.63	99.8854	100.159	199.955
11.6325	99.8852	100.159	199.956
11.635	99.885	100.159	199.956
11.6375	99.8849	100.159	199.957
11.64	99.8847	100.158	199.957
11.6425	99.8846	100.158	199.957
11.645	99.8844	100.158	199.958
11.6475	99.8842	100.157	199.958
11.65	99.8841	100.157	199.959
11.6525	99.8839	100.157	199.959
11.655	99.8838	100.157	199.96
11.6575	99.8836	100.156	199.96
11.66	99.8835	100.156	199.961
11.6625	99.8833	100.156	199.961
11.665	99.8832	100.155	199.961
11.6675	99.883	100.155	199.962
11.67	99.8829	100.155	199.962
11.6725	99.8828	100.155	199.963
11.675	99.8826	100.154	199.963
11.6775	99.8825	100.154	199.964
11.68	99.8824	100.154	199.964
11.6825	99.8822	100.153	199.964
11.685	99.8821	100.153	199.965
11.6875	99.882	100.153	199.965
11.69	99.8818	100.152	199.966
11.6925	99.8817	100.152	199.966
11.695	99.8816	100.152	199.967
11.6975	99.8815	100.152	199.967
11.7	99.8813	100.151	199.967
11.7025	99.8812	100.151	199.968
11.705	99.8811	100.151	199.968
11.7075	99.881	100.15	199.969
11.71	99.8809	100.15	199.969
11.7125	99.8807	100.15	199.969
11.715	99.8806	100.149	199.97
11.7175	99.8805	100.149	199.97
11.72	99.8804	100.149	199.971
11.7225	99.8803	100.149	199.971
11.725	99.8802	100.148	199.972
11.7275	99.8801	100.148	199.972
11.73	99.88	100.148	199.972
11.7325	99.8799	100.147	199.973
11.735	99.8798	100.147	199.973
11.7375	99.8797	100.147	199.974
11.74	99.8796	100.146	199.974
11.7425	99.8795	100.146	199.974
11.745	99.8794	100.146	199.975
11.7475	99.8793	100.146	199.975
11.75	99.8792	100.145	199.976
11.7525	99.8791	100.145	199.976
11.755	99.879	100.145	199.976
11.7575	99.8789	100.144	199.977
11.76	99.8788	100.144	199.977
11.7625	99.8788	100.144	199.977
11.765	99.8787	100.143	199.978
11.7675	99.8786	100.143	199.978
11.77	99.8785	100.143	199.979
11.7725	99.8784	100.143	199.979
11.775	99.8784	100.142	199.979
11.7775	99.8783	100.142	199.98
11.78	99.8782	100.142	199.98
11.7825	99.8781	100.141	199.981
11.785	99.8781	100.141	199.981
11.7875	99.878	100.141	199.981
11.79	99.8779	100.14	199.982
11.7925	99.8779	100.14	199.982
11.795	99.8778	100.14	199.982
11.7975	99.8777	100.139	199.983
11.8	99.8777	100.139	199.983
11.8025	99.8776	100.139	199.984
11.805	99.8775	100.139	199.984
11.8075	99.8775	100.138	199.984
11.81	99.8774	100.138	199.985
11.8125	99.8774	100.138	199.985
11.815	99.8773	100.137	199.985
11.8175	99.8773	100.137	199.986
11.82	99.8772	100.137	199.986
11.8225	99.8772	100.136	199.986
11.825	99.8771	100.136	199.987
11.8275	99.8771	100.136	199.987
11.83	99.877	100.135	199.988
11.8325	99.877	100.135	199.988
11.835	99.8769	100.135	199.988
11.8375	99.8769	100.135	199.989
11.84	99.8768	100.134	199.989
11.8425	99.8768	100.134	199.989
11.845	99.8768	100.134	199.99
11.8475	99.8767	100.133	199.99
11.85	99.8767	100.133	199.99
11.8525	99.8766	100.133	199.991
11.855	99.8766	100.132	199.991
11.8575	99.8766	100.132	199.991
11.86	99.8765	100.132	199.992
11.8625	99.8765	100.131	199.992
11.865	99.8765	100.131	199.992
11.8675	99.8765	100.131	199.993
11.87	99.8764	100.131	199.993
11.8725	99.8764	100.13	199.993
11.875	99.8764	100.13	199.994
11.8775	99.8764	100.13	199.994
11.88	99.8763	100.129	199.994
11.8825	99.8763	100.129	199.995
11.885	99.8763	100.129	199.995
11.8875	99.8763	100.128	199.995
11.89	99.8763	100.128	199.996
11.8925	99.8763	100.128	199.996
11.895	99.8762	100.127	199.996
11.8975	99.8762	100.127	199.997
11.9	99.8762	100.127	199.997
11.9025	99.8762	100.127	199.997
11.905	99.8762	100.126	199.998
11.9075	99.8762	100.126	199.998
11.91	99.8762	100.126	199.998
11.9125	99.8762	100.125	199.999
11.915	99.8762	100.125	199.999
11.9175	99.8762	100.125	199.999
11.92	99.8762	100.124	199.999
11.9225	99.8762	100.124	200
11.925	99.8762	100.124	200
11.9275	99.8762	100.123	200
11.93	99.8762	100.123	200.001
11.9325	99.8762	100.123	200.001
11.935	99.8762	100.122	200.001
11.9375	99.8762	100.122	200.002
11.94	99.8762	100.122	200.002
11.9425	99.8762	100.122	200.002
11.945	99.8762	100.121	200.003
11.9475	99.8762	100.121	200.003
11.95	99.8762	100.121	200.003
11.9525	99.8762	100.12	200.003
11.955	99.8763	100.12	200.004
11.9575	99.8763	100.12	200.004
11.96	99.8763	100.119	200.004
11.9625	99.8763	100.119	200.005
11.965	99.8763	100.119	200.005
11.9675	99.8763	100.118	200.005
11.97	99.8764	100.118	200.005
11.9725	99.8764	100.118	200.006
11.975	99.8764	100.118	200.006
11.9775	99.8764	100.117	200.006
11.98	99.8765	100.117	200.007
11.9825	99.8765	100.117	200.007
11.985	99.8765	100.116	200.007
11.9875	99.8765	100.116	200.007
11.99	99.8766	100.116	200.008
11.9925	99.8766	100.115	200.008
11.995	99.8766	100.115	200.008
11.9975	99.8767	100.115	200.009
12	99.8767	100.114	200.009
12.0025	99.8767	100.114	200.009
12.005	99.8768	100.114	200.009
12.0075	99.8768	100.114	200.01
12.01	99.8768	100.113	200.01
12.0125	99.8769	100.113	200.01
12.015	99.8769	100.113	200.01
12.0175	99.8769	100.112	200.011
12.02	99.877	100.112	200.011
12.0225	99.877	100.112	200.011
12.025	99.8771	100.111	200.012
12.0275	99.8771	100.111	200.012
12.03	99.8772	100.111	200.012
12.0325	99.8772	100.11	200.012
12.035	99.8773	100.11	200.013
12.0375	99.8773	100.11	200.013
12.04	99.8774	100.11	200.013
12.0425	99.8774	100.109	200.013
12.045	99.8775	100.109	200.014
12.0475	99.8775	100.109	200.014
12.05	99.8776	100.108	200.014
12.0525	99.8776	100.108	200.014
12.055	99.8777	100.108	200.015
12.0575	99.8777	100.107	200.015
12.06	99.8778	100.107	200.015
12.0625	99.8778	100.107	200.015
12.065	99.8779	100.106	200.016
12.0675	99.878	100.106	200.016
12.07	99.878	100.106	200.016
12.0725	99.8781	100.106	200.016
12.075	99.8781	100.105	200.017
12.0775	99.8782	100.105	200.017
12.08	99.8783	100.105	200.017
12.0825	99.8783	100.104	200.017
12.085	99.8784	100.104	200.018
12.0875	99.8785	100.104	200.018
12.09	99.8785	100.103	200.018
12.0925	99.8786	100.103	200.018
12.095	99.8787	100.103	200.019
12.0975	99.8787	100.102	200.019
12.1	99.8788	100.102	200.019
12.1025	99.8789	100.102	200.019
12.105	99.879	100.102	200.019
12.1075	99.879	100.101	200.02
12.11	99.8791	100.101	200.02
12.1125	99.8792	100.101	200.02
12.115	99.8793	100.1	200.02
12.1175	99.8793	100.1	200.021
12.12	99.8794	100.1	200.021
12.1225	99.8795	100.099	200.021
12.125	99.8796	100.099	200.021
12.1275	99.8797	100.099	200.021
12.13	99.8797	100.099	200.022
12.1325	99.8798	100.098	200.022
12.135	99.8799	100.098	200.022
12.1375	99.88	100.098	200.022
12.14	99.8801	100.097	200.023
12.1425	99.8802	100.097	200.023
12.145	99.8802	100.097	200.023
12.1475	99.8803	100.096	200.023
12.15	99.8804	100.096	200.023
12.1525	99.8805	100.096	200.024
12.155	99.8806	100.096	200.024
12.1575	99.8807	100.095	200.024
12.16	99.8808	100.095	200.024
12.1625	99.8809	100.095	200.024
12.165	99.881	100.094	200.025
12.1675	99.881	100.094	200.025
12.17	99.8811	100.094	200.025
12.1725	99.8812	100.093	200.025
12.175	99.8813	100.093	200.025
12.1775	99.8814	100.093	200.026
12.18	99.8815	100.093	200.026
12.1825	99.8816	100.092	200.026
12.185	99.8817	100.092	200.026
12.1875	99.8818	100.092	200.026
12.19	99.8819	100.091	200.027
12.1925	99.882	100.091	200.027
12.195	99.8821	100.091	200.027
12.1975	99.8822	100.091	200.027
12.2	99.8823	100.09	200.027
12.2025	99.8824	100.09	200.028
12.205	99.8825	100.09	200.028
12.2075	99.8826	100.089	200.028
12.21	99.8827	100.089	200.028
12.2125	99.8829	100.089	200.028
12.215	99.883	100.088	200.029
12.2175	99.8831	100.088	200.029
12.22	99.8832	100.088	200.029
12.2225	99.8833	100.088	200.029
12.225	99.8834	100.087	200.029
12.2275	99.8835	100.087	200.029
12.23	99.8836	100.087	200.03
12.2325	99.8837	100.086	200.03
12.235	99.8838	100.086	200.03
12.2375	99.884	100.086	200.03
12.24	99.8841	100.086	200.03
12.2425	99.8842	100.085	200.031
12.245	99.8843	100.085	200.031
12.2475	99.8844	100.085	200.031
12.25	99.8845	100.084	200.031
12.2525	99.8846	100.084	200.031
12.255	99.8848	100.084	200.031
12.2575	99.8849	100.084	200.032
12.26	99.885	100.083	200.032
12.2625	99.8851	100.083	200.032
12.265	99.8852	100.083	200.032
12.2675	99.8854	100.082	200.032
12.27	99.8855	100.082	200.032
12.2725	99.8856	100.082	200.033
12.275	99.8857	100.082	200.033
12.2775	99.8859	100.081	200.033
12.28	99.886	100.081	200.033
12.2825	99.8861	100.081	200.033
12.285	99.8862	100.08	200.033
12.2875	99.8864	100.08	200.034
12.29	99.8865	100.08	200.034
12.2925	99.8866	100.08	200.034
12.295	99.8867	100.079	200.034
12.2975	99.8869	100.079	200.034
12.3	99.887	100.079	200.034
12.3025	99.8871	100.078	200.034
12.305	99.8872	100.078	200.035
12.3075	99.8874	100.078	200.035
12.31	99.8875	100.078	200.035
12.3125	99.8876	100.077	200.035
12.315	99.8878	100.077	200.035
12.3175	99.8879	100.077	200.035
12.32	99.888	100.076	200.036
12.3225	99.8882	100.076	200.036
12.325	99.8883	100.076	200.036
12.3275	99.8884	100.076	200.036
12.33	99.8886	100.075	200.036
12.3325	99.8887	100.075	200.036
12.335	99.8888	100.075	200.036
12.3375	99.889	100.074	200.037
12.34	99.8891	100.074	200.037
12.3425	99.8893	100.074	200.037
12.345	99.8894	100.074	200.037
12.3475	99.8895	100.073	200.037
12.35	99.8897	100.073	200.037
12.3525	99.8898	100.073	200.037
12.355	99.89	100.073	200.038
12.3575	99.8901	100.072	200.038
12.36	99.8902	100.072	200.038
12.3625	99.8904	100.072	200.038
12.365	99.8905	100.071	200.038
12.3675	99.8907	100.071	200.038
12.37	99.8908	100.071	200.038
12.3725	99.891	100.071	200.038
12.375	99.8911	100.07	200.039
12.3775	99.8912	100.07	200.039
12.38	99.8914	100.07	200.039
12.3825	99.8915	100.07	200.039
12.385	99.8917	100.069	200.039
12.3875	99.8918	100.069	200.039
12.39	99.892	100.069	200.039
12.3925	99.8921	100.068	200.039
12.395	99.8923	100.068	200.04
12.3975	99.8924	100.068	200.04
12.4	99.8926	100.068	200.04
12.4025	99.8927	100.067	200.04
12.405	99.8929	100.067	200.04
12.4075	99.893	100.067	200.04
12.41	99.8932	100.067	200.04
12.4125	99.8933	100.066	200.04
12.415	99.8935	100.066	200.04
12.4175	99.8936	100.066	200.041
12.42	99.8938	100.066	200.041
12.4225	99.8939	100.065	200.041
12.425	99.8941	100.065	200.041
12.4275	99.8942	100.065	200.041
12.43	99.8944	100.064	200.041
12.4325	99.8946	100.064	200.041
12.435	99.8947	100.064	200.041
12.4375	99.8949	100.064	200.041
12.44	99.895	100.063	200.042
12.4425	99.8952	100.063	200.042
12.445	99.8953	100.063	200.042
12.4475	99.8955	100.063	200.042
12.45	99.8956	100.062	200.042
12.4525	99.8958	100.062	200.042
12.455	99.896	100.062	200.042
12.4575	99.8961	100.062	200.042
12.46	99.8963	100.061	200.042
12.4625	99.8964	100.061	200.043
12.465	99.8966	100.061	200.043
12.4675	99.8968	100.061	200.043
12.47	99.8969	100.06	200.043
12.4725	99.8971	100.06	200.043
12.475	99.8972	100.06	200.043
12.4775	99.8974	100.059	200.043
12.48	99.8976	100.059	200.043
12.4825	99.8977	100.059	200.043
12.485	99.8979	100.059	200.043
12.4875	99.8981	100.058	200.043
12.49	99.8982	100.058	200.044
12.4925	99.8984	100.058	200.044
12.495	99.8985	100.058	200.044
12.4975	99.8987	100.057	200.044
12.5	99.8989	100.057	200.044
12.5025	99.899	100.057	200.044
12.505	99.8992	100.057	200.044
12.5075	99.8994	100.056	200.044
12.51	99.8995	100.056	200.044
12.5125	99.8997	100.056	200.044
12.515	99.8999	100.056	200.044
12.5175	99.9	100.055	200.045
12.52	99.9002	100.055	200.045
12.5225	99.9004	100.055	200.045
12.525	99.9005	100.055	200.045
12.5275	99.9007	100.054	200.045
12.53	99.9009	100.054	200.045
12.5325	99.901	100.054	200.045
12.535	99.9012	100.054	200.045
12.5375	99.9014	100.053	200.045
12.54	99.9016	100.053	200.045
12.5425	99.9017	100.053	200.045
12.545	99.9019	100.053	200.045
12.5475	99.9021	100.052	200.045
12.55	99.9022	100.052	200.046
12.5525	99.9024	100.052	200.046
12.555	99.9026	100.052	200.046
12.5575	99.9027	100.051	200.046
12.56	99.9029	100.051	200.046
12.5625	99.9031	100.051	200.046
12.565	99.9033	100.051	200.046
12.5675	99.9034	100.051	200.046
12.57	99.9036	100.05	200.046
12.5725	99.9038	100.05	200.046
12.575	99.904	100.05	200.046
12.5775	99.9041	100.05	200.046
12.58	99.9043	100.049	200.046
12.5825	99.9045	100.049	200.046
12.585	99.9047	100.049	200.047
12.5875	99.9048	100.049	200.047
12.59	99.905	100.048	200.047
12.5925	99.9052	100.048	200.047
12.595	99.9054	100.048	200.047
12.5975	99.9055	100.048	200.047
12.6	99.9057	100.047	200.047
12.6025	99.9059	100.047	200.047
12.605	99.9061	100.047	200.047
12.6075	99.9062	100.047	200.047
12.61	99.9064	100.046	200.047
12.6125	99.9066	100.046	200.047
12.615	99.9068	100.046	200.047
12.6175	99.9069	100.046	200.047
12.62	99.9071	100.046	200.047
12.6225	99.9073	100.045	200.047
12.625	99.9075	100.045	200.047
12.6275	99.9077	100.045	200.047
12.63	99.9078	100.045	200.048
12.6325	99.908	100.044	200.048
12.635	99.9082	100.044	200.048
12.6375	99.9084	100.044	200.048
12.64	99.9085	100.044	200.048
12.6425	99.9087	100.043	200.048
12.645	99.9089	100.043	200.048
12.6475	99.9091	100.043	200.048
12.65	99.9093	100.043	200.048
12.6525	99.9094	100.043	200.048
12.655	99.9096	100.042	200.048
12.6575	99.9098	100.042	200.048
12.66	99.91	100.042	200.048
12.6625	99.9102	100.042	200.048
12.665	99.9103	100.041	200.048
12.6675	99.9105	100.041	200.048
12.67	99.9107	100.041	200.048
12.6725	99.9109	100.041	200.048
12.675	99.9111	100.041	200.048
12.6775	99.9113	100.04	200.048
12.68	99.9114	100.04	200.048
12.6825	99.9116	100.04	200.049
12.685	99.9118	100.04	200.049
12.6875	99.912	100.039	200.049
12.69	99.9122	100.039	200.049
12.6925	99.9123	100.039	200.049
12.695	99.9125	100.039	200.049
12.6975	99.9127	100.039	200.049
12.7	99.9129	100.038	200.049
12.7025	99.9131	100.038	200.049
12.705	99.9133	100.038	200.049
12.7075	99.9134	100.038	200.049
12.71	99.9136	100.037	200.049
12.7125	99.9138	100.037	200.049
12.715	99.914	100.037	200.049
12.7175	99.9142	100.037	200.049
12.72	99.9144	100.037	200.049
12.7225	99.9145	100.036	200.049
12.725	99.9147	100.036	200.049
12.7275	99.9149	100.036	200.049
12.73	99.9151	100.036	200.049
12.7325	99.9153	100.036	200.049
12.735	99.9155	100.035	200.049
12.7375	99.9156	100.035	200.049
12.74	99.9158	100.035	200.049
12.7425	99.916	100.035	200.049
12.745	99.9162	100.034	200.049
12.7475	99.9164	100.034	200.049
12.75	99.9166	100.034	200.049
12.7525	99.9168	100.034	200.049
12.755	99.9169	100.034	200.049
12.7575	99.9171	100.033	200.049
12.76	99.9173	100.033	200.049
12.7625	99.9175	100.033	200.049
12.765	99.9177	100.033	200.049
12.7675	99.9179	100.033	200.049
12.77	99.9181	100.032	200.05
12.7725	99.9182	100.032	200.05
12.775	99.9184	100.032	200.05
12.7775	99.9186	100.032	200.05
12.78	99.9188	100.032	200.05
12.7825	99.919	100.031	200.05
12.785	99.9192	100.031	200.05
12.7875	99.9194	100.031	200.05
12.79	99.9195	100.031	200.05
12.7925	99.9197	100.031	200.05
12.795	99.9199	100.03	200.05
12.7975	99.9201	100.03	200.05
12.8	99.9203	100.03	200.05
12.8025	99.9205	100.03	200.05
12.805	99.9207	100.03	200.05
12.8075	99.9209	100.029	200.05
12.81	99.921	100.029	200.05
12.8125	99.9212	100.029	200.05
12.815	99.9214	100.029	200.05
12.8175	99.9216	100.029	200.05
12.82	99.9218	100.028	200.05
12.8225	99.922	100.028	200.05
12.825	99.9222	100.028	200.05
12.8275	99.9223	100.028	200.05
12.83	99.9225	100.028	200.05
12.8325	99.9227	100.027	200.05
12.835	99.9229	100.027	200.05
12.8375	99.9231	100.027	200.05
12.84	99.9233	100.027	200.05
12.8425	99.9235	100.027	200.05
12.845	99.9237	100.026	200.05
12.8475	99.9238	100.026	200.05
12.85	99.924	100.026	200.05
12.8525	99.9242	100.026	200.05
12.855	99.9244	100.026	200.05
12.8575	99.9246	100.026	200.05
12.86	99.9248	100.025	200.05
12.8625	99.925	100.025	200.05
12.865	99.9251	100.025	200.05
12.8675	99.9253	100.025	200.05
12.87	99.9255	100.025	200.05
12.8725	99.9257	100.024	200.05
12.875	99.9259	100.024	200.05
12.8775	99.9261	100.024	200.05
12.88	99.9263	100.024	200.05
12.8825	99.9265	100.024	200.05
12.885	99.9266	100.023	200.05
12.8875	99.9268	100.023	200.05
12.89	99.927	100.023	200.05
12.8925	99.9272	100.023	200.05
12.895	99.9274	100.023	200.05
12.8975	99.9276	100.023	200.05
12.9	99.9278	100.022	200.05
12.9025	99.928	100.022	200.05
12.905	99.9281	100.022	200.05
12.9075	99.9283	100.022	200.05
12.91	99.9285	100.022	200.05
12.9125	99.9287	100.022	200.05
12.915	99.9289	100.021	200.05
12.9175	99.9291	100.021	200.05
12.92	99.9293	100.021	200.05
12.9225	99.9294	100.021	200.05
12.925	99.9296	100.021	200.05
12.9275	99.9298	100.02	200.05
12.93	99.93	100.02	200.05
12.9325	99.9302	100.02	200.05
12.935	99.9304	100.02	200.05
12.9375	99.9306	100.02	200.05
12.94	99.9308	100.02	200.05
12.9425	99.9309	100.019	200.05
12.945	99.9311	100.019	200.05
12.9475	99.9313	100.019	200.05
12.95	99.9315	100.019	200.05
12.9525	99.9317	100.019	200.05
12.955	99.9319	100.019	200.05
12.9575	99.9321	100.018	200.05
12.96	99.9322	100.018	200.05
12.9625	99.9324	100.018	200.05
12.965	99.9326	100.018	200.05
12.9675	99.9328	100.018	200.05
12.97	99.933	100.018	200.049
12.9725	99.9332	100.017	200.049
12.975	99.9334	100.017	200.049
12.9775	99.9335	100.017	200.049
12.98	99.9337	100.017	200.049
12.9825	99.9339	100.017	200.049
12.985	99.9341	100.017	200.049
12.9875	99.9343	100.016	200.049
12.99	99.9345	100.016	200.049
12.9925	99.9347	100.016	200.049
12.995	99.9348	100.016	200.049
12.9975	99.935	100.016	200.049
13	99.9352	100.016	200.049
13.0025	99.9354	100.015	200.049
13.005	99.9356	100.015	200.049
13.0075	99.9358	100.015	200.049
13.01	99.9359	100.015	200.049
13.0125	99.9361	100.015	200.049
13.015	99.9363	100.015	200.049
13.0175	99.9365	100.014	200.049
13.02	99.9367	100.014	200.049
13.0225	99.9369	100.014	200.049
13.025	99.9371	100.014	200.049
13.0275	99.9372	100.014	200.049
13.03	99.9374	100.014	200.049
13.0325	99.9376	100.013	200.049
13.035	99.9378	100.013	200.049
13.0375	99.938	100.013	200.049
13.04	99.9382	100.013	200.049
13.0425	99.9383	100.013	200.049
13.045	99.9385	100.013	200.049
13.0475	99.9387	100.013	200.049
13.05	99.9389	100.012	200.049
13.0525	99.9391	100.012	200.049
13.055	99.9392	100.012	200.049
13.0575	99.9394	100.012	200.049
13.06	99.9396	100.012	200.049
13.0625	99.9398	100.012	200.049
13.065	99.94	100.011	200.049
13.0675	99.9402	100.011	200.048
13.07	99.9403	100.011	200.048
13.0725	99.9405	100.011	200.048
13.075	99.9407	100.011	200.048
13.0775	99.9409	100.011	200.048
13.08	99.9411	100.011	200.048
13.0825	99.9412	100.01	200.048
13.085	99.9414	100.01	200.048
13.0875	99.9416	100.01	200.048
13.09	99.9418	100.01	200.048
13.0925	99.942	100.01	200.048
13.095	99.9422	100.01	200.048
13.0975	99.9423	100.01	200.048
13.1	99.9425	100.009	200.048
13.1025	99.9427	100.009	200.048
13.105	99.9429	100.009	200.048
13.1075	99.9431	100.009	200.048
13.11	99.9432	100.009	200.048
13.1125	99.9434	100.009	200.048
13.115	99.9436	100.009	200.048
13.1175	99.9438	100.008	200.048
13.12	99.9439	100.008	200.048
13.1225	99.9441	100.008	200.048
13.125	99.9443	100.008	200.048
13.1275	99.9445	100.008	200.048
13.13	99.9447	100.008	200.048
13.1325	99.9448	100.008	200.048
13.135	99.945	100.007	200.048
13.1375	99.9452	100.007	200.047
13.14	99.9454	100.007	200.047
13.1425	99.9456	100.007	200.047
13.145	99.9457	100.007	200.047
13.1475	99.9459	100.007	200.047
13.15	99.9461	100.007	200.047
13.1525	99.9463	100.007	200.047
13.155	99.9464	100.006	200.047
13.1575	99.9466	100.006	200.047
13.16	99.9468	100.006	200.047
13.1625	99.947	100.006	200.047
13.165	99.9471	100.006	200.047
13.1675	99.9473	100.006	200.047
13.17	99.9475	100.006	200.047
13.1725	99.9477	100.005	200.047
13.175	99.9479	100.005	200.047
13.1775	99.948	100.005	200.047
13.18	99.9482	100.005	200.047
13.1825	99.9484	100.005	200.047
13.185	99.9486	100.005	200.047
13.1875	99.9487	100.005	200.047
13.19	99.9489	100.005	200.047
13.1925	99.9491	100.004	200.046
13.195	99.9493	100.004	200.046
13.1975	99.9494	100.004	200.046
13.2	99.9496	100.004	200.046
13.2025	99.9498	100.004	200.046
13.205	99.9499	100.004	200.046
13.2075	99.9501	100.004	200.046
13.21	99.9503	100.004	200.046
13.2125	99.9505	100.003	200.046
13.215	99.9506	100.003	200.046
13.2175	99.9508	100.003	200.046
13.22	99.951	100.003	200.046
13.2225	99.9512	100.003	200.046
13.225	99.9513	100.003	200.046
13.2275	99.9515	100.003	200.046
13.23	99.9517	100.003	200.046
13.2325	99.9518	100.002	200.046
13.235	99.952	100.002	200.046
13.2375	99.9522	100.002	200.046
13.24	99.9524	100.002	200.046
13.2425	99.9525	100.002	200.046
13.245	99.9527	100.002	200.045
13.2475	99.9529	100.002	200.045
13.25	99.953	100.002	200.045
13.2525	99.9532	100.001	200.045
13.255	99.9534	100.001	200.045
13.2575	99.9535	100.001	200.045
13.26	99.9537	100.001	200.045
13.2625	99.9539	100.001	200.045
13.265	99.9541	100.001	200.045
13.2675	99.9542	100.001	200.045
13.27	99.9544	100.001	200.045
13.2725	99.9546	100.001	200.045
13.275	99.9547	100	200.045
13.2775	99.9549	100	200.045
13.28	99.9551	100	200.045
13.2825	99.9552	100	200.045
13.285	99.9554	100	200.045
13.2875	99.9556	99.9999	200.045
13.29	99.9557	99.9998	200.044
13.2925	99.9559	99.9997	200.044
13.295	99.9561	99.9996	200.044
13.2975	99.9562	99.9995	200.044
13.3	99.9564	99.9993	200.044
13.3025	99.9566	99.9992	200.044
13.305	99.9567	99.9991	200.044
13.3075	99.9569	99.999	200.044
13.31	99.9571	99.9989	200.044
13.3125	99.9572	99.9988	200.044
13.315	99.9574	99.9987	200.044
13.3175	99.9576	99.9986	200.044
13.32	99.9577	99.9985	200.044
13.3225	99.9579	99.9984	200.044
13.325	99.958	99.9983	200.044
13.3275	99.9582	99.9982	200.044
13.33	99.9584	99.9981	200.044
13.3325	99.9585	99.998	200.043
13.335	99.9587	99.9979	200.043
13.3375	99.9589	99.9978	200.043
13.34	99.959	99.9977	200.043
13.3425	99.9592	99.9976	200.043
13.345	99.9594	99.9975	200.043
13.3475	99.9595	99.9973	200.043
13.35	99.9597	99.9972	200.043
13.3525	99.9598	99.9971	200.043
13.355	99.96	99.997	200.043
13.3575	99.9602	99.9969	200.043
13.36	99.9603	99.9968	200.043
13.3625	99.9605	99.9967	200.043
13.365	99.9606	99.9967	200.043
13.3675	99.9608	99.9966	200.043
13.37	99.961	99.9965	200.043
13.3725	99.9611	99.9964	200.043
13.375	99.9613	99.9963	200.042
13.3775	99.9614	99.9962	200.042
13.38	99.9616	99.9961	200.042
13.3825	99.9618	99.996	200.042
13.385	99.9619	99.9959	200.042
13.3875	99.9621	99.9958	200.042
13.39	99.9622	99.9957	200.042
13.3925	99.9624	99.9956	200.042
13.395	99.9625	99.9955	200.042
13.3975	99.9627	99.9954	200.042
13.4	99.9629	99.9953	200.042
13.4025	99.963	99.9952	200.042
13.405	99.9632	99.9951	200.042
13.4075	99.9633	99.995	200.042
13.41	99.9635	99.9949	200.042
13.4125	99.9636	99.9949	200.042
13.415	99.9638	99.9948	200.041
13.4175	99.964	99.9947	200.041
13.42	99.9641	99.9946	200.041
13.4225	99.9643	99.9945	200.041
13.425	99.9644	99.9944	200.041
13.4275	99.9646	99.9943	200.041
13.43	99.9647	99.9942	200.041
13.4325	99.9649	99.9941	200.041
13.435	99.965	99.9941	200.041
13.4375	99.9652	99.994	200.041
13.44	99.9653	99.9939	200.041
13.4425	99.9655	99.9938	200.041
13.445	99.9656	99.9937	200.041
13.4475	99.9658	99.9936	200.041
13.45	99.9659	99.9935	200.041
13.4525	99.9661	99.9934	200.04
13.455	99.9663	99.9934	200.04
13.4575	99.9664	99.9933	200.04
13.46	99.9666	99.9932	200.04
13.4625	99.9667	99.9931	200.04
13.465	99.9669	99.993	200.04
13.4675	99.967	99.9929	200.04
13.47	99.9672	99.9929	200.04
13.4725	99.9673	99.9928	200.04
13.475	99.9675	99.9927	200.04
13.4775	99.9676	99.9926	200.04
13.48	99.9678	99.9925	200.04
13.4825	99.9679	99.9925	200.04
13.485	99.968	99.9924	200.04
13.4875	99.9682	99.9923	200.04
13.49	99.9683	99.9922	200.039
13.4925	99.9685	99.9921	200.039
13.495	99.9686	99.9921	200.039
13.4975	99.9688	99.992	200.039
13.5	99.9689	99.9919	200.039
13.5025	99.9691	99.9918	200.039
13.505	99.9692	99.9918	200.039
13.5075	99.9694	99.9917	200.039
13.51	99.9695	99.9916	200.039
13.5125	99.9697	99.9915	200.039
13.515	99.9698	99.9914	200.039
13.5175	99.97	99.9914	200.039
13.52	99.9701	99.9913	200.039
13.5225	99.9702	99.9912	200.039
13.525	99.9704	99.9911	200.038
13.5275	99.9705	99.9911	200.038
13.53	99.9707	99.991	200.038
13.5325	99.9708	99.9909	200.038
13.535	99.971	99.9909	200.038
13.5375	99.9711	99.9908	200.038
13.54	99.9713	99.9907	200.038
13.5425	99.9714	99.9906	200.038
13.545	99.9715	99.9906	200.038
13.5475	99.9717	99.9905	200.038
13.55	99.9718	99.9904	200.038
13.5525	99.972	99.9904	200.038
13.555	99.9721	99.9903	200.038
13.5575	99.9722	99.9902	200.038
13.56	99.9724	99.9901	200.037
13.5625	99.9725	99.9901	200.037
13.565	99.9727	99.99	200.037
13.5675	99.9728	99.9899	200.037
13.57	99.9729	99.9899	200.037
13.5725	99.9731	99.9898	200.037
13.575	99.9732	99.9897	200.037
13.5775	99.9734	99.9897	200.037
13.58	99.9735	99.9896	200.037
13.5825	99.9736	99.9895	200.037
13.585	99.9738	99.9895	200.037
13.5875	99.9739	99.9894	200.037
13.59	99.9741	99.9893	200.037
13.5925	99.9742	99.9893	200.037
13.595	99.9743	99.9892	200.036
13.5975	99.9745	99.9892	200.036
13.6	99.9746	99.9891	200.036
13.6025	99.9747	99.989	200.036
13.605	99.9749	99.989	200.036
13.6075	99.975	99.9889	200.036
13.61	99.9751	99.9888	200.036
13.6125	99.9753	99.9888	200.036
13.615	99.9754	99.9887	200.036
13.6175	99.9755	99.9887	200.036
13.62	99.9757	99.9886	200.036
13.6225	99.9758	99.9885	200.036
13.625	99.9759	99.9885	200.036
13.6275	99.9761	99.9884	200.036
13.63	99.9762	99.9883	200.035
13.6325	99.9763	99.9883	200.035
13.635	99.9765	99.9882	200.035
13.6375	99.9766	99.9882	200.035
13.64	99.9767	99.9881	200.035
13.6425	99.9769	99.9881	200.035
13.645	99.977	99.988	200.035
13.6475	99.9771	99.9879	200.035
13.65	99.9773	99.9879	200.035
13.6525	99.9774	99.9878	200.035
13.655	99.9775	99.9878	200.035
13.6575	99.9777	99.9877	200.035
13.66	99.9778	99.9877	200.035
13.6625	99.9779	99.9876	200.034
13.665	99.978	99.9875	200.034
13.6675	99.9782	99.9875	200.034
13.67	99.9783	99.9874	200.034
13.6725	99.9784	99.9874	200.034
13.675	99.9786	99.9873	200.034
13.6775	99.9787	99.9873	200.034
13.68	99.9788	99.9872	200.034
13.6825	99.9789	99.9872	200.034
13.685	99.9791	99.9871	200.034
13.6875	99.9792	99.9871	200.034
13.69	99.9793	99.987	200.034
13.6925	99.9794	99.987	200.034
13.695	99.9796	99.9869	200.034
13.6975	99.9797	99.9869	200.033
13.7	99.9798	99.9868	200.033
13.7025	99.9799	99.9868	200.033
13.705	99.9801	99.9867	200.033
13.7075	99.9802	99.9867	200.033
13.71	99.9803	99.9866	200.033
13.7125	99.9804	99.9866	200.033
13.715	99.9806	99.9865	200.033
13.7175	99.9807	99.9865	200.033
13.72	99.9808	99.9864	200.033
13.7225	99.9809	99.9864	200.033
13.725	99.9811	99.9863	200.033
13.7275	99.9812	99.9863	200.033
13.73	99.9813	99.9862	200.032
13.7325	99.9814	99.9862	200.032
13.735	99.9815	99.9861	200.032
13.7375	99.9817	99.9861	200.032
13.74	99.9818	99.986	200.032
13.7425	99.9819	99.986	200.032
13.745	99.982	99.986	200.032
13.7475	99.9822	99.9859	200.032
13.75	99.9823	99.9859	200.032
13.7525	99.9824	99.9858	200.032
13.755	99.9825	99.9858	200.032
13.7575	99.9826	99.9857	200.032
13.76	99.9827	99.9857	200.032
13.7625	99.9829	99.9856	200.031
13.765	99.983	99.9856	200.031
13.7675	99.9831	99.9856	200.031
13.77	99.9832	99.9855	200.031
13.7725	99.9833	99.9855	200.031
13.775	99.9835	99.9854	200.031
13.7775	99.9836	99.9854	200.031
13.78	99.9837	99.9854	200.031
13.7825	99.9838	99.9853	200.031
13.785	99.9839	99.9853	200.031
13.7875	99.984	99.9852	200.031
13.79	99.9841	99.9852	200.031
13.7925	99.9843	99.9852	200.031
13.795	99.9844	99.9851	200.031
13.7975	99.9845	99.9851	200.03
13.8	99.9846	99.985	200.03
13.8025	99.9847	99.985	200.03
13.805	99.9848	99.985	200.03
13.8075	99.9849	99.9849	200.03
13.81	99.9851	99.9849	200.03
13.8125	99.9852	99.9848	200.03
13.815	99.9853	99.9848	200.03
13.8175	99.9854	99.9848	200.03
13.82	99.9855	99.9847	200.03
13.8225	99.9856	99.9847	200.03
13.825	99.9857	99.9847	200.03
13.8275	99.9858	99.9846	200.03
13.83	99.9859	99.9846	200.029
13.8325	99.9861	99.9846	200.029
13.835	99.9862	99.9845	200.029
13.8375	99.9863	99.9845	200.029
13.84	99.9864	99.9845	200.029
13.8425	99.9865	99.9844	200.029
13.845	99.9866	99.9844	200.029
13.8475	99.9867	99.9844	200.029
13.85	99.9868	99.9843	200.029
13.8525	99.9869	99.9843	200.029
13.855	99.987	99.9843	200.029
13.8575	99.9871	99.9842	200.029
13.86	99.9873	99.9842	200.029
13.8625	99.9874	99.9842	200.028
13.865	99.9875	99.9841	200.028
13.8675	99.9876	99.9841	200.028
13.87	99.9877	99.9841	200.028
13.8725	99.9878	99.984	200.028
13.875	99.9879	99.984	200.028
13.8775	99.988	99.984	200.028
13.88	99.9881	99.9839	200.028
13.8825	99.9882	99.9839	200.028
13.885	99.9883	99.9839	200.028
13.8875	99.9884	99.9839	200.028
13.89	99.9885	99.9838	200.028
13.8925	99.9886	99.9838	200.028
13.895	99.9887	99.9838	200.028
13.8975	99.9888	99.9837	200.027
13.9	99.9889	99.9837	200.027
13.9025	99.989	99.9837	200.027
13.905	99.9891	99.9837	200.027
13.9075	99.9892	99.9836	200.027
13.91	99.9893	99.9836	200.027
13.9125	99.9894	99.9836	200.027
13.915	99.9895	99.9836	200.027
13.9175	99.9896	99.9835	200.027
13.92	99.9897	99.9835	200.027
13.9225	99.9898	99.9835	200.027
13.925	99.9899	99.9835	200.027
13.9275	99.99	99.9834	200.027
13.93	99.9901	99.9834	200.026
13.9325	99.9902	99.9834	200.026
13.935	99.9903	99.9834	200.026
13.9375	99.9904	99.9833	200.026
13.94	99.9905	99.9833	200.026
13.9425	99.9906	99.9833	200.026
13.945	99.9907	99.9833	200.026
13.9475	99.9908	99.9832	200.026
13.95	99.9909	99.9832	200.026
13.9525	99.991	99.9832	200.026
13.955	99.9911	99.9832	200.026
13.9575	99.9912	99.9831	200.026
13.96	99.9913	99.9831	200.026
13.9625	99.9914	99.9831	200.025
13.965	99.9915	99.9831	200.025
13.9675	99.9916	99.9831	200.025
13.97	99.9917	99.983	200.025
13.9725	99.9918	99.983	200.025
13.975	99.9919	99.983	200.025
13.9775	99.992	99.983	200.025
13.98	99.9921	99.983	200.025
13.9825	99.9922	99.9829	200.025
13.985	99.9923	99.9829	200.025
13.9875	99.9923	99.9829	200.025
13.99	99.9924	99.9829	200.025
13.9925	99.9925	99.9829	200.025
13.995	99.9926	99.9828	200.025
13.9975	99.9927	99.9828	200.024
14	99.9928	99.9828	200.024
14.0025	99.9929	99.9828	200.024
14.005	99.993	99.9828	200.024
14.0075	99.9931	99.9828	200.024
14.01	99.9932	99.9827	200.024
14.0125	99.9933	99.9827	200.024
14.015	99.9934	99.9827	200.024
14.0175	99.9934	99.9827	200.024
14.02	99.9935	99.9827	200.024
14.0225	99.9936	99.9827	200.024
14.025	99.9937	99.9826	200.024
14.0275	99.9938	99.9826	200.024
14.03	99.9939	99.9826	200.024
14.0325	99.994	99.9826	200.023
14.035	99.9941	99.9826	200.023
14.0375	99.9942	99.9826	200.023
14.04	99.9942	99.9825	200.023
14.0425	99.9943	99.9825	200.023
14.045	99.9944	99.9825	200.023
14.0475	99.9945	99.9825	200.023
14.05	99.9946	99.9825	200.023
14.0525	99.9947	99.9825	200.023
14.055	99.9948	99.9825	200.023
14.0575	99.9948	99.9825	200.023
14.06	99.9949	99.9824	200.023
14.0625	99.995	99.9824	200.023
14.065	99.9951	99.9824	200.022
14.0675	99.9952	99.9824	200.022
14.07	99.9953	99.9824	200.022
14.0725	99.9953	99.9824	200.022
14.075	99.9954	99.9824	200.022
14.0775	99.9955	99.9824	200.022
14.08	99.9956	99.9823	200.022
14.0825	99.9957	99.9823	200.022
14.085	99.9958	99.9823	200.022
14.0875	99.9958	99.9823	200.022
14.09	99.9959	99.9823	200.022
14.0925	99.996	99.9823	200.022
14.095	99.9961	99.9823	200.022
14.0975	99.9962	99.9823	200.022
14.1	99.9962	99.9823	200.021
14.1025	99.9963	99.9823	200.021
14.105	99.9964	99.9822	200.021
14.1075	99.9965	99.9822	200.021
14.11	99.9966	99.9822	200.021
14.1125	99.9966	99.9822	200.021
14.115	99.9967	99.9822	200.021
14.1175	99.9968	99.9822	200.021
14.12	99.9969	99.9822	200.021
14.1225	99.997	99.9822	200.021
14.125	99.997	99.9822	200.021
14.1275	99.9971	99.9822	200.021
14.13	99.9972	99.9822	200.021
14.1325	99.9973	99.9822	200.021
14.135	99.9974	99.9822	200.02
14.1375	99.9974	99.9821	200.02
14.14	99.9975	99.9821	200.02
14.1425	99.9976	99.9821	200.02
14.145	99.9977	99.9821	200.02
14.1475	99.9977	99.9821	200.02
14.15	99.9978	99.9821	200.02
14.1525	99.9979	99.9821	200.02
14.155	99.998	99.9821	200.02
14.1575	99.998	99.9821	200.02
14.16	99.9981	99.9821	200.02
14.1625	99.9982	99.9821	200.02
14.165	99.9983	99.9821	200.02
14.1675	99.9983	99.9821	200.02
14.17	99.9984	99.9821	200.02
14.1725	99.9985	99.9821	200.019
14.175	99.9985	99.9821	200.019
14.1775	99.9986	99.9821	200.019
14.18	99.9987	99.9821	200.019
14.1825	99.9988	99.9821	200.019
14.185	99.9988	99.9821	200.019
14.1875	99.9989	99.9821	200.019
14.19	99.999	99.9821	200.019
14.1925	99.999	99.9821	200.019
14.195	99.9991	99.982	200.019
14.1975	99.9992	99.982	200.019
14.2	99.9993	99.982	200.019
14.2025	99.9993	99.982	200.019
14.205	99.9994	99.982	200.019
14.2075	99.9995	99.982	200.018
14.21	99.9995	99.982	200.018
14.2125	99.9996	99.982	200.018
14.215	99.9997	99.982	200.018
14.2175	99.9997	99.982	200.018
14.22	99.9998	99.982	200.018
14.2225	99.9999	99.982	200.018
14.225	99.9999	99.982	200.018
14.2275	100	99.982	200.018
14.23	100	99.982	200.018
14.2325	100	99.982	200.018
14.235	100	99.982	200.018
14.2375	100	99.982	200.018
14.24	100	99.982	200.018
14.2425	100	99.982	200.018
14.245	100	99.982	200.017
14.2475	100.001	99.982	200.017
14.25	100.001	99.982	200.017
14.2525	100.001	99.982	200.017
14.255	100.001	99.982	200.017
14.2575	100.001	99.982	200.017
14.26	100.001	99.982	200.017
14.2625	100.001	99.9821	200.017
14.265	100.001	99.9821	200.017
14.2675	100.001	99.9821	200.017
14.27	100.001	99.9821	200.017
14.2725	100.001	99.9821	200.017
14.275	100.001	99.9821	200.017
14.2775	100.001	99.9821	200.017
14.28	100.001	99.9821	200.017
14.2825	100.001	99.9821	200.016
14.285	100.001	99.9821	200.016
14.2875	100.002	99.9821	200.016
14.29	100.002	99.9821	200.016
14.2925	100.002	99.9821	200.016
14.295	100.002	99.9821	200.016
14.2975	100.002	99.9821	200.016
14.3	100.002	99.9821	200.016
14.3025	100.002	99.9821	200.016
14.305	100.002	99.9821	200.016
14.3075	100.002	99.9821	200.016
14.31	100.002	99.9821	200.016
14.3125	100.002	99.9821	200.016
14.315	100.002	99.9821	200.016
14.3175	100.002	99.9821	200.016
14.32	100.002	99.9821	200.016
14.3225	100.002	99.9822	200.015
14.325	100.002	99.9822	200.015
14.3275	100.003	99.9822	200.015
14.33	100.003	99.9822	200.015
14.3325	100.003	99.9822	200.015
14.335	100.003	99.9822	200.015
14.3375	100.003	99.9822	200.015
14.34	100.003	99.9822	200.015
14.3425	100.003	99.9822	200.015
14.345	100.003	99.9822	200.015
14.3475	100.003	99.9822	200.015
14.35	100.003	99.9822	200.015
14.3525	100.003	99.9822	200.015
14.355	100.003	99.9822	200.015
14.3575	100.003	99.9822	200.015
14.36	100.003	99.9823	200.015
14.3625	100.003	99.9823	200.014
14.365	100.003	99.9823	200.014
14.3675	100.003	99.9823	200.014
14.37	100.003	99.9823	200.014
14.3725	100.004	99.9823	200.014
14.375	100.004	99.9823	200.014
14.3775	100.004	99.9823	200.014
14.38	100.004	99.9823	200.014
14.3825	100.004	99.9823	200.014
14.385	100.004	99.9823	200.014
14.3875	100.004	99.9824	200.014
14.39	100.004	99.9824	200.014
14.3925	100.004	99.9824	200.014
14.395	100.004	99.9824	200.014
14.3975	100.004	99.9824	200.014
14.4	100.004	99.9824	200.014
14.4025	100.004	99.9824	200.013
14.405	100.004	99.9824	200.013
14.4075	100.004	99.9824	200.013
14.41	100.004	99.9824	200.013
14.4125	100.004	99.9825	200.013
14.415	100.004	99.9825	200.013
14.4175	100.004	99.9825	200.013
14.42	100.004	99.9825	200.013
14.4225	100.005	99.9825	200.013
14.425	100.005	99.9825	200.013
14.4275	100.005	99.9825	200.013
14.43	100.005	99.9825	200.013
14.4325	100.005	99.9825	200.013
14.435	100.005	99.9826	200.013
14.4375	100.005	99.9826	200.013
14.44	100.005	99.9826	200.013
14.4425	100.005	99.9826	200.012
14.445	100.005	99.9826	200.012
14.4475	100.005	99.9826	200.012
14.45	100.005	99.9826	200.012
14.4525	100.005	99.9826	200.012
14.455	100.005	99.9827	200.012
14.4575	100.005	99.9827	200.012
14.46	100.005	99.9827	200.012
14.4625	100.005	99.9827	200.012
14.465	100.005	99.9827	200.012
14.4675	100.005	99.9827	200.012
14.47	100.005	99.9827	200.012
14.4725	100.005	99.9828	200.012
14.475	100.005	99.9828	200.012
14.4775	100.006	99.9828	200.012
14.48	100.006	99.9828	200.012
14.4825	100.006	99.9828	200.012
14.485	100.006	99.9828	200.012
14.4875	100.006	99.9828	200.011
14.49	100.006	99.9828	200.011
14.4925	100.006	99.9829	200.011
14.495	100.006	99.9829	200.011
14.4975	100.006	99.9829	200.011
14.5	100.006	99.9829	200.011
14.5025	100.006	99.9829	200.011
14.505	100.006	99.9829	200.011
14.5075	100.006	99.983	200.011
14.51	100.006	99.983	200.011
14.5125	100.006	99.983	200.011
14.515	100.006	99.983	200.011
14.5175	100.006	99.983	200.011
14.52	100.006	99.983	200.011
14.5225	100.006	99.983	200.011
14.525	100.006	99.9831	200.011
14.5275	100.006	99.9831	200.011
14.53	100.006	99.9831	200.01
14.5325	100.006	99.9831	200.01
14.535	100.006	99.9831	200.01
14.5375	100.007	99.9831	200.01
14.54	100.007	99.9832	200.01
14.5425	100.007	99.9832	200.01
14.545	100.007	99.9832	200.01
14.5475	100.007	99.9832	200.01
14.55	100.007	99.9832	200.01
14.5525	100.007	99.9832	200.01
14.555	100.007	99.9833	200.01
14.5575	100.007	99.9833	200.01
14.56	100.007	99.9833	200.01
14.5625	100.007	99.9833	200.01
14.565	100.007	99.9833	200.01
14.5675	100.007	99.9833	200.01
14.57	100.007	99.9834	200.01
14.5725	100.007	99.9834	200.01
14.575	100.007	99.9834	200.01
14.5775	100.007	99.9834	200.009
14.58	100.007	99.9834	200.009
14.5825	100.007	99.9835	200.009
14.585	100.007	99.9835	200.009
14.5875	100.007	99.9835	200.009
14.59	100.007	99.9835	200.009
14.5925	100.007	99.9835	200.009
14.595	100.007	99.9835	200.009
14.5975	100.007	99.9836	200.009
14.6	100.007	99.9836	200.009
14.6025	100.007	99.9836	200.009
14.605	100.008	99.9836	200.009
14.6075	100.008	99.9836	200.009
14.61	100.008	99.9837	200.009
14.6125	100.008	99.9837	200.009
14.615	100.008	99.9837	200.009
14.6175	100.008	99.9837	200.009
14.62	100.008	99.9837	200.009
14.6225	100.008	99.9837	200.009
14.625	100.008	99.9838	200.008
14.6275	100.008	99.9838	200.008
14.63	100.008	99.9838	200.008
14.6325	100.008	99.9838	200.008
14.635	100.008	99.9838	200.008
14.6375	100.008	99.9839	200.008
14.64	100.008	99.9839	200.008
14.6425	100.008	99.9839	200.008
14.645	100.008	99.9839	200.008
14.6475	100.008	99.9839	200.008
14.65	100.008	99.984	200.008
14.6525	100.008	99.984	200.008
14.655	100.008	99.984	200.008
14.6575	100.008	99.984	200.008
14.66	100.008	99.984	200.008
14.6625	100.008	99.9841	200.008
14.665	100.008	99.9841	200.008
14.6675	100.008	99.9841	200.008
14.67	100.008	99.9841	200.008
14.6725	100.008	99.9842	200.008
14.675	100.008	99.9842	200.007
14.6775	100.008	99.9842	200.007
14.68	100.008	99.9842	200.007
14.6825	100.008	99.9842	200.007
14.685	100.008	99.9843	200.007
14.6875	100.008	99.9843	200.007
14.69	100.009	99.9843	200.007
14.6925	100.009	99.9843	200.007
14.695	100.009	99.9843	200.007
14.6975	100.009	99.9844	200.007
14.7	100.009	99.9844	200.007
14.7025	100.009	99.9844	200.007
14.705	100.009	99.9844	200.007
14.7075	100.009	99.9844	200.007
14.71	100.009	99.9845	200.007
14.7125	100.009	99.9845	200.007
14.715	100.009	99.9845	200.007
14.7175	100.009	99.9845	200.007
14.72	100.009	99.9846	200.007
14.7225	100.009	99.9846	200.007
14.725	100.009	99.9846	200.007
14.7275	100.009	99.9846	200.006
14.73	100.009	99.9846	200.006
14.7325	100.009	99.9847	200.006
14.735	100.009	99.9847	200.006
14.7375	100.009	99.9847	200.006
14.74	100.009	99.9847	200.006
14.7425	100.009	99.9848	200.006
14.745	100.009	99.9848	200.006
14.7475	100.009	99.9848	200.006
14.75	100.009	99.9848	200.006
14.7525	100.009	99.9849	200.006
14.755	100.009	99.9849	200.006
14.7575	100.009	99.9849	200.006
14.76	100.009	99.9849	200.006
14.7625	100.009	99.9849	200.006
14.765	100.009	99.985	200.006
14.7675	100.009	99.985	200.006
14.77	100.009	99.985	200.006
14.7725	100.009	99.985	200.006
14.775	100.009	99.9851	200.006
14.7775	100.009	99.9851	200.006
14.78	100.009	99.9851	200.006
14.7825	100.009	99.9851	200.005
14.785	100.009	99.9852	200.005
14.7875	100.009	99.9852	200.005
14.79	100.009	99.9852	200.005
14.7925	100.009	99.9852	200.005
14.795	100.01	99.9852	200.005
14.7975	100.01	99.9853	200.005
14.8	100.01	99.9853	200.005
14.8025	100.01	99.9853	200.005
14.805	100.01	99.9853	200.005
14.8075	100.01	99.9854	200.005
14.81	100.01	99.9854	200.005
14.8125	100.01	99.9854	200.005
14.815	100.01	99.9854	200.005
14.8175	100.01	99.9855	200.005
14.82	100.01	99.9855	200.005
14.8225	100.01	99.9855	200.005
14.825	100.01	99.9855	200.005
14.8275	100.01	99.9856	200.005
14.83	100.01	99.9856	200.005
14.8325	100.01	99.9856	200.005
14.835	100.01	99.9856	200.005
14.8375	100.01	99.9857	200.005
14.84	100.01	99.9857	200.004
14.8425	100.01	99.9857	200.004
14.845	100.01	99.9857	200.004
14.8475	100.01	99.9858	200.004
14.85	100.01	99.9858	200.004
14.8525	100.01	99.9858	200.004
14.855	100.01	99.9858	200.004
14.8575	100.01	99.9859	200.004
14.86	100.01	99.9859	200.004
14.8625	100.01	99.9859	200.004
14.865	100.01	99.9859	200.004
14.8675	100.01	99.986	200.004
14.87	100.01	99.986	200.004
14.8725	100.01	99.986	200.004
14.875	100.01	99.986	200.004
14.8775	100.01	99.9861	200.004
14.88	100.01	99.9861	200.004
14.8825	100.01	99.9861	200.004
14.885	100.01	99.9861	200.004
14.8875	100.01	99.9862	200.004
14.89	100.01	99.9862	200.004
14.8925	100.01	99.9862	200.004
14.895	100.01	99.9862	200.004
14.8975	100.01	99.9863	200.004
14.9	100.01	99.9863	200.004
14.9025	100.01	99.9863	200.003
14.905	100.01	99.9863	200.003
14.9075	100.01	99.9864	200.003
14.91	100.01	99.9864	200.003
14.9125	100.01	99.9864	200.003
14.915	100.01	99.9864	200.003
14.9175	100.01	99.9865	200.003
14.92	100.01	99.9865	200.003
14.9225	100.01	99.9865	200.003
14.925	100.01	99.9865	200.003
14.9275	100.01	99.9866	200.003
14.93	100.01	99.9866	200.003
14.9325	100.01	99.9866	200.003
14.935	100.01	99.9866	200.003
14.9375	100.01	99.9867	200.003
14.94	100.01	99.9867	200.003
14.9425	100.01	99.9867	200.003
14.945	100.01	99.9867	200.003
14.9475	100.01	99.9868	200.003
14.95	100.01	99.9868	200.003
14.9525	100.01	99.9868	200.003
14.955	100.01	99.9869	200.003
14.9575	100.01	99.9869	200.003
14.96	100.01	99.9869	200.003
14.9625	100.01	99.9869	200.003
14.965	100.01	99.987	200.003
14.9675	100.01	99.987	200.003
14.97	100.011	99.987	200.002
14.9725	100.011	99.987	200.002
14.975	100.011	99.9871	200.002
14.9775	100.011	99.9871	200.002
14.98	100.011	99.9871	200.002
14.9825	100.011	99.9871	200.002
14.985	100.011	99.9872	200.002
14.9875	100.011	99.9872	200.002
14.99	100.011	99.9872	200.002
14.9925	100.011	99.9872	200.002
14.995	100.011	99.9873	200.002
14.9975	100.011	99.9873	200.002
15	100.011	99.9873	200.002
