# N = 400
# (S0, I0, R0) = (197.5, 5, 197.5)
# (a, b, c) = (4, 1, 0.5)
# time, S, I, R
0	197.5	5	197.5
0.0025	197.722	5.01222	197.266
0.005	197.944	5.02449	197.032
0.0075	198.165	5.03682	196.798
0.01	198.386	5.04921	196.565
0.0125	198.606	5.06166	196.332
0.015	198.826	5.07417	196.1
0.0175	199.046	5.08673	195.867
0.02	199.265	5.09936	195.635
0.0225	199.484	5.11204	195.404
0.025	199.703	5.12479	195.172
0.0275	199.921	5.13759	194.941
0.03	200.139	5.15045	194.711
0.0325	200.356	5.16338	194.48
0.035	200.573	5.17636	194.25
0.0375	200.79	5.18941	194.021
0.04	201.006	5.20252	193.791
0.0425	201.222	5.21568	193.562
0.045	201.438	5.22891	193.333
0.0475	201.653	5.2422	193.105
0.05	201.868	5.25556	192.877
0.0525	202.082	5.26897	192.649
0.055	202.296	5.28245	192.422
0.0575	202.51	5.29599	192.194
0.06	202.723	5.3096	191.968
0.0625	202.936	5.32326	191.741
0.065	203.148	5.33699	191.515
0.0675	203.36	5.35079	191.289
0.07	203.572	5.36465	191.063
0.0725	203.783	5.37857	190.838
0.075	203.994	5.39256	190.613
0.0775	204.205	5.40661	190.389
0.08	204.415	5.42073	190.164
0.0825	204.625	5.43491	189.94
0.085	204.834	5.44916	189.717
0.0875	205.043	5.46347	189.493
0.09	205.252	5.47785	189.27
0.0925	205.46	5.4923	189.047
0.095	205.668	5.50681	188.825
0.0975	205.876	5.52139	188.603
0.1	206.083	5.53604	188.381
0.1025	206.29	5.55076	188.16
0.105	206.496	5.56554	187.938
0.1075	206.702	5.58039	187.718
0.11	206.908	5.59531	187.497
0.1125	207.113	5.6103	187.277
0.115	207.318	5.62536	187.057
0.1175	207.522	5.64049	186.837
0.12	207.726	5.65568	186.618
0.1225	207.93	5.67095	186.399
0.125	208.133	5.68629	186.18
0.1275	208.336	5.7017	185.962
0.13	208.539	5.71717	185.744
0.1325	208.741	5.73272	185.526
0.135	208.943	5.74834	185.309
0.1375	209.144	5.76403	185.092
0.14	209.345	5.7798	184.875
0.1425	209.546	5.79563	184.658
0.145	209.746	5.81154	184.442
0.1475	209.946	5.82752	184.226
0.15	210.146	5.84358	184.011
0.1525	210.345	5.85971	183.796
0.155	210.543	5.87591	183.581
0.1575	210.742	5.89218	183.366
0.16	210.94	5.90853	183.152
0.1625	211.137	5.92496	182.938
0.165	211.335	5.94146	182.724
0.1675	211.531	5.95803	182.511
0.17	211.728	5.97468	182.297
0.1725	211.924	5.99141	182.085
0.175	212.12	6.00821	181.872
0.1775	212.315	6.02509	181.66
0.18	212.51	6.04205	181.448
0.1825	212.704	6.05908	181.237
0.185	212.898	6.07619	181.025
0.1875	213.092	6.09338	180.814
0.19	213.286	6.11065	180.604
0.1925	213.479	6.12799	180.393
0.195	213.671	6.14542	180.183
0.1975	213.863	6.16292	179.974
0.2	214.055	6.1805	179.764
0.2025	214.247	6.19817	179.555
0.205	214.438	6.21591	179.346
0.2075	214.628	6.23373	179.138
0.21	214.819	6.25164	178.93
0.2125	215.008	6.26962	178.722
0.215	215.198	6.28769	178.514
0.2175	215.387	6.30584	178.307
0.22	215.576	6.32407	178.1
0.2225	215.764	6.34239	177.893
0.225	215.952	6.36078	177.687
0.2275	216.14	6.37926	177.481
0.23	216.327	6.39783	177.275
0.2325	216.514	6.41648	177.07
0.235	216.7	6.43521	176.865
0.2375	216.886	6.45402	176.66
0.24	217.072	6.47293	176.455
0.2425	217.257	6.49191	176.251
0.245	217.442	6.51099	176.047
0.2475	217.626	6.53015	175.843
0.25	217.81	6.54939	175.64
0.2525	217.994	6.56873	175.437
0.255	218.177	6.58815	175.234
0.2575	218.36	6.60766	175.032
0.26	218.543	6.62725	174.83
0.2625	218.725	6.64694	174.628
0.265	218.907	6.66671	174.427
0.2675	219.088	6.68657	174.225
0.27	219.269	6.70652	174.024
0.2725	219.45	6.72657	173.824
0.275	219.63	6.7467	173.623
0.2775	219.81	6.76692	173.423
0.28	219.989	6.78724	173.224
0.2825	220.168	6.80764	173.024
0.285	220.347	6.82814	172.825
0.2875	220.525	6.84873	172.626
0.29	220.703	6.86941	172.428
0.2925	220.88	6.89019	172.23
0.295	221.057	6.91106	172.032
0.2975	221.234	6.93202	171.834
0.3	221.41	6.95308	171.637
0.3025	221.586	6.97423	171.44
0.305	221.761	6.99547	171.243
0.3075	221.936	7.01682	171.047
0.31	222.111	7.03825	170.851
0.3125	222.285	7.05979	170.655
0.315	222.459	7.08142	170.459
0.3175	222.633	7.10315	170.264
0.32	222.806	7.12497	170.069
0.3225	222.979	7.1469	169.874
0.325	223.151	7.16892	169.68
0.3275	223.323	7.19104	169.486
0.33	223.494	7.21326	169.292
0.3325	223.665	7.23558	169.099
0.335	223.836	7.258	168.906
0.3375	224.006	7.28052	168.713
0.34	224.176	7.30314	168.52
0.3425	224.346	7.32586	168.328
0.345	224.515	7.34869	168.136
0.3475	224.684	7.37162	167.945
0.35	224.852	7.39465	167.753
0.3525	225.02	7.41778	167.562
0.355	225.188	7.44101	167.371
0.3575	225.355	7.46435	167.181
0.36	225.521	7.4878	166.991
0.3625	225.688	7.51135	166.801
0.365	225.854	7.535	166.611
0.3675	226.019	7.55876	166.422
0.37	226.184	7.58263	166.233
0.3725	226.349	7.6066	166.044
0.375	226.513	7.63068	165.856
0.3775	226.677	7.65487	165.668
0.38	226.841	7.67917	165.48
0.3825	227.004	7.70357	165.293
0.385	227.167	7.72809	165.105
0.3875	227.329	7.75271	164.918
0.39	227.491	7.77745	164.732
0.3925	227.652	7.80229	164.546
0.395	227.813	7.82724	164.36
0.3975	227.974	7.85231	164.174
0.4	228.134	7.87749	163.988
0.4025	228.294	7.90278	163.803
0.405	228.453	7.92818	163.618
0.4075	228.612	7.9537	163.434
0.41	228.771	7.97933	163.25
0.4125	228.929	8.00508	163.066
0.415	229.087	8.03094	162.882
0.4175	229.245	8.05691	162.699
0.42	229.402	8.083	162.515
0.4225	229.558	8.10921	162.333
0.425	229.714	8.13553	162.15
0.4275	229.87	8.16197	161.968
0.43	230.025	8.18853	161.786
0.4325	230.18	8.21521	161.604
0.435	230.335	8.242	161.423
0.4375	230.489	8.26892	161.242
0.44	230.643	8.29595	161.061
0.4425	230.796	8.32311	160.881
0.445	230.949	8.35039	160.701
0.4475	231.101	8.37778	160.521
0.45	231.253	8.4053	160.341
0.4525	231.405	8.43295	160.162
0.455	231.556	8.46071	159.983
0.4575	231.707	8.4886	159.804
0.46	231.857	8.51661	159.626
0.4625	232.007	8.54475	159.448
0.465	232.157	8.57301	159.27
0.4675	232.306	8.6014	159.093
0.47	232.455	8.62991	158.915
0.4725	232.603	8.65855	158.738
0.475	232.751	8.68732	158.562
0.4775	232.898	8.71621	158.386
0.48	233.045	8.74524	158.209
0.4825	233.192	8.77439	158.034
0.485	233.338	8.80367	157.858
0.4875	233.484	8.83308	157.683
0.49	233.629	8.86262	157.508
0.4925	233.774	8.8923	157.334
0.495	233.919	8.9221	157.159
0.4975	234.063	8.95204	156.985
0.5	234.206	8.98211	156.812
0.5025	234.349	9.01231	156.638
0.505	234.492	9.04265	156.465
0.5075	234.635	9.07312	156.292
0.51	234.777	9.10373	156.12
0.5125	234.918	9.13447	155.948
0.515	235.059	9.16535	155.776
0.5175	235.2	9.19636	155.604
0.52	235.34	9.22751	155.433
0.5225	235.48	9.2588	155.261
0.525	235.619	9.29023	155.091
0.5275	235.758	9.3218	154.92
0.53	235.897	9.35351	154.75
0.5325	236.035	9.38536	154.58
0.535	236.172	9.41734	154.41
0.5375	236.309	9.44948	154.241
0.54	236.446	9.48175	154.072
0.5425	236.582	9.51416	153.903
0.545	236.718	9.54672	153.735
0.5475	236.854	9.57942	153.567
0.55	236.989	9.61227	153.399
0.5525	237.123	9.64526	153.231
0.555	237.258	9.6784	153.064
0.5575	237.391	9.71168	152.897
0.56	237.525	9.74511	152.73
0.5625	237.657	9.77869	152.564
0.565	237.79	9.81242	152.398
0.5675	237.922	9.8463	152.232
0.57	238.053	9.88032	152.066
0.5725	238.184	9.9145	151.901
0.575	238.315	9.94882	151.736
0.5775	238.445	9.9833	151.572
0.58	238.575	10.0179	151.407
0.5825	238.704	10.0527	151.243
0.585	238.833	10.0876	151.079
0.5875	238.961	10.1227	150.916
0.59	239.089	10.158	150.753
0.5925	239.217	10.1934	150.59
0.595	239.344	10.2289	150.427
0.5975	239.47	10.2646	150.265
0.6	239.597	10.3005	150.103
0.6025	239.722	10.3365	149.941
0.605	239.848	10.3727	149.78
0.6075	239.972	10.4091	149.619
0.61	240.097	10.4456	149.458
0.6125	240.221	10.4822	149.297
0.615	240.344	10.5191	149.137
0.6175	240.467	10.5561	148.977
0.62	240.59	10.5932	148.817
0.6225	240.712	10.6305	148.658
0.625	240.833	10.668	148.499
0.6275	240.954	10.7056	148.34
0.63	241.075	10.7435	148.181
0.6325	241.195	10.7814	148.023
0.635	241.315	10.8196	147.865
0.6375	241.434	10.8579	147.708
0.64	241.553	10.8963	147.55
0.6425	241.672	10.935	147.393
0.645	241.79	10.9738	147.237
0.6475	241.907	11.0128	147.08
0.65	242.024	11.0519	146.924
0.6525	242.141	11.0913	146.768
0.655	242.257	11.1308	146.612
0.6575	242.372	11.1704	146.457
0.66	242.488	11.2103	146.302
0.6625	242.602	11.2503	146.147
0.665	242.716	11.2905	145.993
0.6675	242.83	11.3309	145.839
0.67	242.944	11.3714	145.685
0.6725	243.056	11.4122	145.532
0.675	243.169	11.4531	145.378
0.6775	243.281	11.4941	145.225
0.68	243.392	11.5354	145.073
0.6825	243.503	11.5768	144.92
0.685	243.613	11.6185	144.768
0.6875	243.723	11.6603	144.617
0.69	243.833	11.7023	144.465
0.6925	243.942	11.7444	144.314
0.695	244.05	11.7868	144.163
0.6975	244.158	11.8293	144.012
0.7	244.266	11.872	143.862
0.7025	244.373	11.915	143.712
0.705	244.48	11.9581	143.562
0.7075	244.586	12.0013	143.413
0.71	244.691	12.0448	143.264
0.7125	244.796	12.0885	143.115
0.715	244.901	12.1323	142.967
0.7175	245.005	12.1764	142.818
0.72	245.109	12.2206	142.67
0.7225	245.212	12.2651	142.523
0.725	245.315	12.3097	142.375
0.7275	245.417	12.3545	142.228
0.73	245.519	12.3995	142.082
0.7325	245.62	12.4447	141.935
0.735	245.721	12.4901	141.789
0.7375	245.821	12.5357	141.643
0.74	245.921	12.5815	141.498
0.7425	246.02	12.6275	141.352
0.745	246.119	12.6737	141.207
0.7475	246.217	12.7201	141.063
0.75	246.315	12.7667	140.918
0.7525	246.412	12.8135	140.774
0.755	246.509	12.8605	140.63
0.7575	246.605	12.9077	140.487
0.76	246.701	12.9551	140.344
0.7625	246.796	13.0027	140.201
0.765	246.891	13.0506	140.058
0.7675	246.986	13.0986	139.916
0.77	247.079	13.1468	139.774
0.7725	247.173	13.1953	139.632
0.775	247.265	13.2439	139.491
0.7775	247.358	13.2928	139.35
0.78	247.449	13.3419	139.209
0.7825	247.54	13.3911	139.068
0.785	247.631	13.4406	138.928
0.7875	247.721	13.4904	138.788
0.79	247.811	13.5403	138.649
0.7925	247.9	13.5904	138.509
0.795	247.989	13.6408	138.37
0.7975	248.077	13.6914	138.232
0.8	248.165	13.7422	138.093
0.8025	248.252	13.7932	137.955
0.805	248.338	13.8444	137.817
0.8075	248.424	13.8959	137.68
0.81	248.51	13.9475	137.543
0.8125	248.595	13.9994	137.406
0.815	248.679	14.0515	137.269
0.8175	248.763	14.1039	137.133
0.82	248.847	14.1564	136.997
0.8225	248.93	14.2092	136.861
0.825	249.012	14.2623	136.726
0.8275	249.094	14.3155	136.591
0.83	249.175	14.369	136.456
0.8325	249.256	14.4227	136.321
0.835	249.336	14.4766	136.187
0.8375	249.416	14.5308	136.053
0.84	249.495	14.5852	135.92
0.8425	249.574	14.6398	135.786
0.845	249.652	14.6946	135.653
0.8475	249.73	14.7497	135.521
0.85	249.807	14.8051	135.388
0.8525	249.883	14.8606	135.256
0.855	249.959	14.9164	135.124
0.8575	250.035	14.9725	134.993
0.86	250.109	15.0288	134.862
0.8625	250.184	15.0853	134.731
0.865	250.258	15.142	134.6
0.8675	250.331	15.199	134.47
0.87	250.404	15.2563	134.34
0.8725	250.476	15.3138	134.211
0.875	250.547	15.3715	134.081
0.8775	250.618	15.4295	133.952
0.88	250.689	15.4877	133.824
0.8825	250.759	15.5462	133.695
0.885	250.828	15.6049	133.567
0.8875	250.897	15.6638	133.439
0.89	250.965	15.7231	133.312
0.8925	251.033	15.7825	133.185
0.895	251.1	15.8422	133.058
0.8975	251.167	15.9022	132.931
0.9	251.233	15.9624	132.805
0.9025	251.298	16.0229	132.679
0.905	251.363	16.0837	132.553
0.9075	251.427	16.1446	132.428
0.91	251.491	16.2059	132.303
0.9125	251.554	16.2674	132.178
0.915	251.617	16.3292	132.054
0.9175	251.679	16.3912	131.93
0.92	251.741	16.4535	131.806
0.9225	251.801	16.516	131.682
0.925	251.862	16.5788	131.559
0.9275	251.922	16.6419	131.436
0.93	251.981	16.7052	131.314
0.9325	252.039	16.7688	131.192
0.935	252.097	16.8327	131.07
0.9375	252.155	16.8969	130.948
0.94	252.212	16.9613	130.827
0.9425	252.268	17.0259	130.706
0.945	252.324	17.0909	130.585
0.9475	252.379	17.1561	130.465
0.95	252.433	17.2216	130.345
0.9525	252.487	17.2874	130.225
0.955	252.541	17.3534	130.106
0.9575	252.594	17.4197	129.987
0.96	252.646	17.4863	129.868
0.9625	252.697	17.5532	129.749
0.965	252.748	17.6203	129.631
0.9675	252.799	17.6878	129.513
0.97	252.849	17.7555	129.396
0.9725	252.898	17.8235	129.279
0.975	252.946	17.8917	129.162
0.9775	252.994	17.9603	129.045
0.98	253.042	18.0291	128.929
0.9825	253.089	18.0982	128.813
0.985	253.135	18.1676	128.698
0.9875	253.18	18.2373	128.582
0.99	253.225	18.3073	128.467
0.9925	253.27	18.3776	128.353
0.995	253.314	18.4482	128.238
0.9975	253.357	18.519	128.124
1	253.399	18.5902	128.011
1.0025	253.441	18.6616	127.897
1.005	253.483	18.7333	127.784
1.0075	253.523	18.8054	127.671
1.01	253.563	18.8777	127.559
1.0125	253.603	18.9503	127.447
1.015	253.642	19.0232	127.335
1.0175	253.68	19.0965	127.224
1.02	253.718	19.17	127.113
1.0225	253.754	19.2438	127.002
1.025	253.791	19.3179	126.891
1.0275	253.827	19.3923	126.781
1.03	253.862	19.4671	126.671
1.0325	253.896	19.5421	126.562
1.035	253.93	19.6174	126.453
1.0375	253.963	19.6931	126.344
1.04	253.996	19.769	126.235
1.0425	254.028	19.8453	126.127
1.045	254.059	19.9219	126.019
1.0475	254.09	19.9988	125.912
1.05	254.12	20.076	125.804
1.0525	254.149	20.1535	125.697
1.055	254.178	20.2313	125.591
1.0575	254.206	20.3094	125.485
1.06	254.233	20.3879	125.379
1.0625	254.26	20.4666	125.273
1.065	254.286	20.5457	125.168
1.0675	254.312	20.6251	125.063
1.07	254.337	20.7049	124.958
1.0725	254.361	20.7849	124.854
1.075	254.385	20.8653	124.75
1.0775	254.408	20.946	124.646
1.08	254.43	21.027	124.543
1.0825	254.451	21.1083	124.44
1.085	254.472	21.19	124.338
1.0875	254.493	21.272	124.235
1.09	254.512	21.3543	124.133
1.0925	254.531	21.437	124.032
1.095	254.55	21.52	123.93
1.0975	254.567	21.6033	123.83
1.1	254.584	21.6869	123.729
1.1025	254.6	21.7709	123.629
1.105	254.616	21.8552	123.529
1.1075	254.631	21.9399	123.429
1.11	254.645	22.0248	123.33
1.1125	254.659	22.1102	123.231
1.115	254.672	22.1958	123.132
1.1175	254.684	22.2818	123.034
1.12	254.696	22.3682	122.936
1.1225	254.707	22.4548	122.839
1.125	254.717	22.5418	122.741
1.1275	254.726	22.6292	122.644
1.13	254.735	22.7169	122.548
1.1325	254.743	22.805	122.452
1.135	254.751	22.8934	122.356
1.1375	254.758	22.9821	122.26
1.14	254.764	23.0712	122.165
1.1425	254.769	23.1606	122.07
1.145	254.774	23.2504	121.976
1.1475	254.778	23.3406	121.881
1.15	254.781	23.431	121.788
1.1525	254.784	23.5219	121.694
1.155	254.786	23.6131	121.601
1.1575	254.787	23.7046	121.508
1.16	254.788	23.7965	121.416
1.1625	254.788	23.8888	121.324
1.165	254.787	23.9814	121.232
1.1675	254.785	24.0744	121.14
1.17	254.783	24.1678	121.049
1.1725	254.78	24.2615	120.959
1.175	254.776	24.3555	120.868
1.1775	254.772	24.4499	120.778
1.18	254.767	24.5447	120.689
1.1825	254.761	24.6399	120.599
1.185	254.754	24.7354	120.51
1.1875	254.747	24.8313	120.422
1.19	254.739	24.9275	120.333
1.1925	254.73	25.0241	120.246
1.195	254.721	25.1211	120.158
1.1975	254.711	25.2185	120.071
1.2	254.7	25.3162	119.984
1.2025	254.688	25.4143	119.897
1.205	254.676	25.5128	119.811
1.2075	254.663	25.6116	119.725
1.21	254.649	25.7108	119.64
1.2125	254.635	25.8104	119.555
1.215	254.62	25.9104	119.47
1.2175	254.604	26.0107	119.386
1.22	254.587	26.1114	119.302
1.2225	254.569	26.2125	119.218
1.225	254.551	26.314	119.135
1.2275	254.532	26.4159	119.052
1.23	254.513	26.5181	118.969
1.2325	254.492	26.6208	118.887
1.235	254.471	26.7238	118.805
1.2375	254.449	26.8272	118.724
1.24	254.427	26.9309	118.642
1.2425	254.403	27.0351	118.562
1.245	254.379	27.1396	118.481
1.2475	254.354	27.2446	118.401
1.25	254.329	27.3499	118.321
1.2525	254.302	27.4556	118.242
1.255	254.275	27.5617	118.163
1.2575	254.247	27.6682	118.084
1.26	254.219	27.7751	118.006
1.2625	254.189	27.8824	117.928
1.265	254.159	27.9901	117.851
1.2675	254.128	28.0982	117.774
1.27	254.097	28.2066	117.697
1.2725	254.064	28.3155	117.62
1.275	254.031	28.4247	117.544
1.2775	253.997	28.5344	117.469
1.28	253.962	28.6445	117.393
1.2825	253.927	28.7549	117.318
1.285	253.89	28.8658	117.244
1.2875	253.853	28.977	117.17
1.29	253.816	29.0887	117.096
1.2925	253.777	29.2007	117.022
1.295	253.738	29.3132	116.949
1.2975	253.697	29.4261	116.877
1.3	253.657	29.5393	116.804
1.3025	253.615	29.653	116.732
1.305	253.572	29.7671	116.661
1.3075	253.529	29.8816	116.589
1.31	253.485	29.9965	116.519
1.3125	253.44	30.1118	116.448
1.315	253.395	30.2275	116.378
1.3175	253.348	30.3436	116.308
1.32	253.301	30.4601	116.239
1.3225	253.253	30.5771	116.17
1.325	253.204	30.6944	116.101
1.3275	253.155	30.8122	116.033
1.33	253.104	30.9304	115.965
1.3325	253.053	31.049	115.898
1.335	253.001	31.168	115.831
1.3375	252.948	31.2874	115.764
1.34	252.895	31.4073	115.698
1.3425	252.841	31.5275	115.632
1.345	252.785	31.6482	115.566
1.3475	252.729	31.7693	115.501
1.35	252.673	31.8908	115.437
1.3525	252.615	32.0127	115.372
1.355	252.557	32.1351	115.308
1.3575	252.498	32.2579	115.245
1.36	252.438	32.3811	115.181
1.3625	252.377	32.5047	115.119
1.365	252.315	32.6287	115.056
1.3675	252.253	32.7532	114.994
1.37	252.19	32.878	114.932
1.3725	252.126	33.0033	114.871
1.375	252.061	33.1291	114.81
1.3775	251.995	33.2552	114.75
1.38	251.929	33.3818	114.69
1.3825	251.861	33.5088	114.63
1.385	251.793	33.6362	114.571
1.3875	251.724	33.7641	114.512
1.39	251.655	33.8924	114.453
1.3925	251.584	34.0211	114.395
1.395	251.513	34.1502	114.337
1.3975	251.44	34.2798	114.28
1.4	251.367	34.4098	114.223
1.4025	251.293	34.5402	114.166
1.405	251.219	34.6711	114.11
1.4075	251.143	34.8024	114.054
1.41	251.067	34.9341	113.999
1.4125	250.99	35.0662	113.944
1.415	250.912	35.1988	113.89
1.4175	250.833	35.3318	113.835
1.42	250.753	35.4653	113.782
1.4225	250.673	35.5992	113.728
1.425	250.591	35.7335	113.675
1.4275	250.509	35.8682	113.623
1.43	250.426	36.0034	113.571
1.4325	250.342	36.139	113.519
1.435	250.257	36.2751	113.467
1.4375	250.172	36.4115	113.417
1.44	250.086	36.5485	113.366
1.4425	249.998	36.6858	113.316
1.445	249.91	36.8236	113.266
1.4475	249.821	36.9618	113.217
1.45	249.732	37.1005	113.168
1.4525	249.641	37.2396	113.119
1.455	249.55	37.3791	113.071
1.4575	249.457	37.5191	113.024
1.46	249.364	37.6595	112.976
1.4625	249.27	37.8003	112.929
1.465	249.175	37.9416	112.883
1.4675	249.08	38.0833	112.837
1.47	248.983	38.2255	112.791
1.4725	248.886	38.3681	112.746
1.475	248.788	38.5111	112.701
1.4775	248.689	38.6546	112.657
1.48	248.589	38.7985	112.613
1.4825	248.488	38.9428	112.569
1.485	248.386	39.0876	112.526
1.4875	248.284	39.2328	112.484
1.49	248.18	39.3785	112.441
1.4925	248.076	39.5246	112.399
1.495	247.971	39.6711	112.358
1.4975	247.865	39.8181	112.317
1.5	247.758	39.9655	112.276
1.5025	247.651	40.1133	112.236
1.505	247.542	40.2616	112.196
1.5075	247.433	40.4104	112.157
1.51	247.323	40.5595	112.118
1.5125	247.212	40.7091	112.079
1.515	247.1	40.8592	112.041
1.5175	246.987	41.0096	112.003
1.52	246.873	41.1606	111.966
1.5225	246.759	41.3119	111.929
1.525	246.643	41.4637	111.893
1.5275	246.527	41.6159	111.857
1.53	246.41	41.7686	111.821
1.5325	246.292	41.9217	111.786
1.535	246.173	42.0752	111.751
1.5375	246.054	42.2292	111.717
1.54	245.933	42.3836	111.683
1.5425	245.812	42.5385	111.65
1.545	245.689	42.6938	111.617
1.5475	245.566	42.8495	111.584
1.55	245.442	43.0056	111.552
1.5525	245.317	43.1622	111.52
1.555	245.192	43.3192	111.489
1.5575	245.065	43.4767	111.458
1.56	244.938	43.6346	111.428
1.5625	244.809	43.7929	111.398
1.565	244.68	43.9517	111.368
1.5675	244.55	44.1109	111.339
1.57	244.419	44.2705	111.311
1.5725	244.287	44.4305	111.282
1.575	244.154	44.591	111.255
1.5775	244.021	44.7519	111.227
1.58	243.887	44.9133	111.2
1.5825	243.751	45.075	111.174
1.585	243.615	45.2373	111.148
1.5875	243.478	45.3999	111.122
1.59	243.34	45.5629	111.097
1.5925	243.201	45.7264	111.072
1.595	243.062	45.8904	111.048
1.5975	242.921	46.0547	111.024
1.6	242.78	46.2195	111.001
1.6025	242.638	46.3847	110.978
1.605	242.495	46.5503	110.955
1.6075	242.351	46.7163	110.933
1.61	242.206	46.8828	110.911
1.6125	242.06	47.0497	110.89
1.615	241.914	47.217	110.869
1.6175	241.766	47.3847	110.849
1.62	241.618	47.5528	110.829
1.6225	241.469	47.7214	110.81
1.625	241.319	47.8904	110.791
1.6275	241.168	48.0598	110.772
1.63	241.016	48.2296	110.754
1.6325	240.864	48.3999	110.736
1.635	240.71	48.5705	110.719
1.6375	240.556	48.7416	110.702
1.64	240.401	48.9131	110.686
1.6425	240.245	49.085	110.67
1.645	240.088	49.2573	110.655
1.6475	239.93	49.43	110.64
1.65	239.771	49.6031	110.625
1.6525	239.612	49.7766	110.611
1.655	239.452	49.9506	110.598
1.6575	239.29	50.1249	110.585
1.66	239.128	50.2997	110.572
1.6625	238.965	50.4748	110.56
1.665	238.802	50.6504	110.548
1.6675	238.637	50.8263	110.537
1.67	238.472	51.0027	110.526
1.6725	238.305	51.1795	110.515
1.675	238.138	51.3566	110.505
1.6775	237.97	51.5342	110.496
1.68	237.801	51.7121	110.487
1.6825	237.631	51.8905	110.478
1.685	237.461	52.0692	110.47
1.6875	237.289	52.2483	110.462
1.69	237.117	52.4279	110.455
1.6925	236.944	52.6078	110.448
1.695	236.77	52.7881	110.442
1.6975	236.595	52.9688	110.436
1.7	236.419	53.1498	110.431
1.7025	236.243	53.3313	110.426
1.705	236.065	53.5131	110.421
1.7075	235.887	53.6954	110.417
1.71	235.708	53.878	110.414
1.7125	235.528	54.0609	110.411
1.715	235.348	54.2443	110.408
1.7175	235.166	54.428	110.406
1.72	234.984	54.6121	110.404
1.7225	234.8	54.7966	110.403
1.725	234.616	54.9815	110.402
1.7275	234.431	55.1667	110.402
1.73	234.246	55.3523	110.402
1.7325	234.059	55.5382	110.403
1.735	233.872	55.7246	110.404
1.7375	233.684	55.9112	110.405
1.74	233.494	56.0983	110.407
1.7425	233.305	56.2857	110.41
1.745	233.114	56.4734	110.413
1.7475	232.922	56.6615	110.416
1.75	232.73	56.85	110.42
1.7525	232.537	57.0388	110.424
1.755	232.343	57.228	110.429
1.7575	232.148	57.4175	110.434
1.76	231.953	57.6074	110.44
1.7625	231.756	57.7976	110.446
1.765	231.559	57.9881	110.453
1.7675	231.361	58.179	110.46
1.77	231.162	58.3703	110.468
1.7725	230.962	58.5618	110.476
1.775	230.762	58.7537	110.484
1.7775	230.561	58.946	110.493
1.78	230.359	59.1385	110.503
1.7825	230.156	59.3314	110.513
1.785	229.952	59.5246	110.523
1.7875	229.748	59.7182	110.534
1.79	229.543	59.9121	110.545
1.7925	229.337	60.1062	110.557
1.795	229.13	60.3008	110.57
1.7975	228.922	60.4956	110.582
1.8	228.714	60.6907	110.596
1.8025	228.505	60.8862	110.609
1.805	228.295	61.0819	110.623
1.8075	228.084	61.278	110.638
1.81	227.872	61.4744	110.653
1.8125	227.66	61.671	110.669
1.815	227.447	61.868	110.685
1.8175	227.233	62.0653	110.702
1.82	227.019	62.2628	110.719
1.8225	226.803	62.4607	110.736
1.825	226.587	62.6589	110.754
1.8275	226.37	62.8573	110.772
1.83	226.153	63.056	110.791
1.8325	225.934	63.255	110.811
1.835	225.715	63.4543	110.831
1.8375	225.495	63.6539	110.851
1.84	225.275	63.8537	110.872
1.8425	225.053	64.0538	110.893
1.845	224.831	64.2542	110.915
1.8475	224.608	64.4549	110.937
1.85	224.384	64.6558	110.96
1.8525	224.16	64.857	110.983
1.855	223.935	65.0584	111.007
1.8575	223.709	65.2602	111.031
1.86	223.483	65.4621	111.055
1.8625	223.255	65.6643	111.08
1.865	223.027	65.8668	111.106
1.8675	222.799	66.0695	111.132
1.87	222.569	66.2724	111.158
1.8725	222.339	66.4756	111.185
1.875	222.108	66.6791	111.213
1.8775	221.877	66.8827	111.241
1.88	221.644	67.0866	111.269
1.8825	221.411	67.2908	111.298
1.885	221.178	67.4951	111.327
1.8875	220.943	67.6997	111.357
1.89	220.708	67.9045	111.387
1.8925	220.472	68.1096	111.418
1.895	220.236	68.3148	111.449
1.8975	219.999	68.5202	111.481
1.9	219.761	68.7259	111.513
1.9025	219.522	68.9318	111.546
1.905	219.283	69.1378	111.579
1.9075	219.043	69.3441	111.613
1.91	218.803	69.5506	111.647
1.9125	218.561	69.7573	111.681
1.915	218.319	69.9641	111.716
1.9175	218.077	70.1712	111.752
1.92	217.834	70.3784	111.788
1.9225	217.59	70.5858	111.824
1.925	217.345	70.7934	111.861
1.9275	217.1	71.0012	111.899
1.93	216.854	71.2091	111.937
1.9325	216.608	71.4172	111.975
1.935	216.361	71.6255	112.014
1.9375	216.113	71.834	112.053
1.94	215.865	72.0426	112.093
1.9425	215.616	72.2513	112.133
1.945	215.366	72.4602	112.174
1.9475	215.116	72.6693	112.215
1.95	214.865	72.8785	112.256
1.9525	214.614	73.0878	112.299
1.955	214.362	73.2973	112.341
1.9575	214.109	73.507	112.384
1.96	213.856	73.7167	112.428
1.9625	213.602	73.9266	112.472
1.965	213.347	74.1366	112.516
1.9675	213.092	74.3468	112.561
1.97	212.836	74.557	112.606
1.9725	212.58	74.7674	112.652
1.975	212.323	74.9779	112.699
1.9775	212.066	75.1885	112.745
1.98	211.808	75.3992	112.793
1.9825	211.549	75.61	112.841
1.985	211.29	75.8209	112.889
1.9875	211.031	76.0319	112.937
1.99	210.77	76.243	112.987
1.9925	210.51	76.4542	113.036
1.995	210.248	76.6655	113.086
1.9975	209.986	76.8768	113.137
2	209.724	77.0882	113.188
2.0025	209.461	77.2997	113.239
2.005	209.198	77.5113	113.291
2.0075	208.934	77.7229	113.344
2.01	208.669	77.9346	113.396
2.0125	208.404	78.1464	113.45
2.015	208.138	78.3582	113.504
2.0175	207.872	78.57	113.558
2.02	207.606	78.782	113.612
2.0225	207.338	78.9939	113.668
2.025	207.071	79.2059	113.723
2.0275	206.803	79.4179	113.779
2.03	206.534	79.63	113.836
2.0325	206.265	79.8421	113.893
2.035	205.995	80.0542	113.95
2.0375	205.725	80.2664	114.008
2.04	205.455	80.4785	114.067
2.0425	205.184	80.6907	114.126
2.045	204.912	80.9029	114.185
2.0475	204.64	81.1151	114.245
2.05	204.368	81.3273	114.305
2.0525	204.095	81.5395	114.365
2.055	203.822	81.7517	114.427
2.0575	203.548	81.9639	114.488
2.06	203.274	82.1761	114.55
2.0625	202.999	82.3882	114.613
2.065	202.724	82.6004	114.676
2.0675	202.449	82.8125	114.739
2.07	202.173	83.0246	114.803
2.0725	201.896	83.2366	114.867
2.075	201.62	83.4486	114.932
2.0775	201.342	83.6606	114.997
2.08	201.065	83.8725	115.063
2.0825	200.787	84.0844	115.129
2.085	200.508	84.2963	115.195
2.0875	200.23	84.5081	115.262
2.09	199.951	84.7198	115.33
2.0925	199.671	84.9314	115.397
2.095	199.391	85.143	115.466
2.0975	199.111	85.3546	115.535
2.1	198.83	85.566	115.604
2.1025	198.549	85.7774	115.673
2.105	198.268	85.9887	115.743
2.1075	197.986	86.1999	115.814
2.11	197.704	86.411	115.885
2.1125	197.422	86.622	115.956
2.115	197.139	86.8329	116.028
2.1175	196.856	87.0438	116.1
2.12	196.572	87.2545	116.173
2.1225	196.289	87.4651	116.246
2.125	196.005	87.6756	116.32
2.1275	195.72	87.8859	116.394
2.13	195.436	88.0962	116.468
2.1325	195.151	88.3063	116.543
2.135	194.865	88.5163	116.618
2.1375	194.58	88.7262	116.694
2.14	194.294	88.9359	116.77
2.1425	194.008	89.1455	116.847
2.145	193.721	89.3549	116.924
2.1475	193.434	89.5642	117.001
2.15	193.147	89.7733	117.079
2.1525	192.86	89.9823	117.158
2.155	192.573	90.1911	117.236
2.1575	192.285	90.3998	117.315
2.16	191.997	90.6083	117.395
2.1625	191.708	90.8166	117.475
2.165	191.42	91.0247	117.555
2.1675	191.131	91.2326	117.636
2.17	190.842	91.4404	117.717
2.1725	190.553	91.648	117.799
2.175	190.263	91.8553	117.881
2.1775	189.974	92.0625	117.964
2.18	189.684	92.2695	118.047
2.1825	189.394	92.4763	118.13
2.185	189.104	92.6828	118.214
2.1875	188.813	92.8892	118.298
2.19	188.522	93.0953	118.382
2.1925	188.231	93.3012	118.467
2.195	187.94	93.5069	118.553
2.1975	187.649	93.7124	118.638
2.2	187.358	93.9176	118.725
2.2025	187.066	94.1226	118.811
2.205	186.774	94.3274	118.898
2.2075	186.483	94.5319	118.986
2.21	186.19	94.7361	119.073
2.2125	185.898	94.9401	119.162
2.215	185.606	95.1439	119.25
2.2175	185.313	95.3474	119.339
2.22	185.021	95.5506	119.429
2.2225	184.728	95.7536	119.518
2.225	184.435	95.9563	119.609
2.2275	184.142	96.1587	119.699
2.23	183.849	96.3608	119.79
2.2325	183.556	96.5627	119.881
2.235	183.263	96.7642	119.973
2.2375	182.969	96.9655	120.065
2.24	182.676	97.1665	120.158
2.2425	182.382	97.3672	120.251
2.245	182.088	97.5675	120.344
2.2475	181.795	97.7676	120.438
2.25	181.501	97.9674	120.532
2.2525	181.207	98.1668	120.626
2.255	180.913	98.366	120.721
2.2575	180.619	98.5648	120.816
2.26	180.325	98.7633	120.912
2.2625	180.031	98.9615	121.008
2.265	179.737	99.1593	121.104
2.2675	179.442	99.3568	121.201
2.27	179.148	99.5539	121.298
2.2725	178.854	99.7508	121.395
2.275	178.56	99.9472	121.493
2.2775	178.265	100.143	121.591
2.28	177.971	100.339	121.69
2.2825	177.677	100.535	121.789
2.285	177.382	100.73	121.888
2.2875	177.088	100.924	121.988
2.29	176.794	101.119	122.088
2.2925	176.499	101.313	122.188
2.295	176.205	101.506	122.289
2.2975	175.911	101.699	122.39
2.3	175.616	101.892	122.491
2.3025	175.322	102.085	122.593
2.305	175.028	102.277	122.695
2.3075	174.734	102.468	122.798
2.31	174.44	102.659	122.901
2.3125	174.146	102.85	123.004
2.315	173.852	103.041	123.107
2.3175	173.558	103.231	123.211
2.32	173.264	103.42	123.316
2.3225	172.97	103.61	123.42
2.325	172.676	103.798	123.525
2.3275	172.383	103.987	123.63
2.33	172.089	104.175	123.736
2.3325	171.796	104.362	123.842
2.335	171.502	104.549	123.948
2.3375	171.209	104.736	124.055
2.34	170.916	104.922	124.162
2.3425	170.623	105.108	124.269
2.345	170.33	105.293	124.377
2.3475	170.037	105.478	124.484
2.35	169.744	105.663	124.593
2.3525	169.452	105.847	124.701
2.355	169.159	106.03	124.81
2.3575	168.867	106.213	124.919
2.36	168.575	106.396	125.029
2.3625	168.283	106.578	125.139
2.365	167.991	106.76	125.249
2.3675	167.699	106.941	125.36
2.37	167.408	107.122	125.47
2.3725	167.116	107.302	125.581
2.375	166.825	107.482	125.693
2.3775	166.534	107.661	125.805
2.38	166.243	107.84	125.917
2.3825	165.952	108.019	126.029
2.385	165.662	108.196	126.142
2.3875	165.372	108.374	126.255
2.39	165.081	108.551	126.368
2.3925	164.791	108.727	126.482
2.395	164.502	108.903	126.595
2.3975	164.212	109.078	126.71
2.4	163.923	109.253	126.824
2.4025	163.634	109.427	126.939
2.405	163.345	109.601	127.054
2.4075	163.056	109.775	127.169
2.41	162.768	109.947	127.285
2.4125	162.48	110.12	127.401
2.415	162.192	110.291	127.517
2.4175	161.904	110.463	127.633
2.42	161.617	110.633	127.75
2.4225	161.329	110.803	127.867
2.425	161.043	110.973	127.984
2.4275	160.756	111.142	128.102
2.43	160.469	111.311	128.22
2.4325	160.183	111.479	128.338
2.435	159.897	111.646	128.456
2.4375	159.612	111.813	128.575
2.44	159.327	111.979	128.694
2.4425	159.042	112.145	128.813
2.445	158.757	112.31	128.933
2.4475	158.472	112.475	129.052
2.45	158.188	112.639	129.172
2.4525	157.904	112.803	129.293
2.455	157.621	112.966	129.413
2.4575	157.338	113.128	129.534
2.46	157.055	113.29	129.655
2.4625	156.772	113.452	129.776
2.465	156.49	113.612	129.898
2.4675	156.208	113.772	130.02
2.47	155.926	113.932	130.142
2.4725	155.645	114.091	130.264
2.475	155.364	114.249	130.386
2.4775	155.083	114.407	130.509
2.48	154.803	114.565	130.632
2.4825	154.523	114.721	130.756
2.485	154.244	114.877	130.879
2.4875	153.965	115.033	131.003
2.49	153.686	115.188	131.127
2.4925	153.407	115.342	131.251
2.495	153.129	115.496	131.375
2.4975	152.851	115.649	131.5
2.5	152.574	115.801	131.625
2.5025	152.297	115.953	131.75
2.505	152.02	116.104	131.875
2.5075	151.744	116.255	132.001
2.51	151.468	116.405	132.126
2.5125	151.193	116.555	132.252
2.515	150.918	116.704	132.379
2.5175	150.643	116.852	132.505
2.52	150.369	116.999	132.632
2.5225	150.095	117.146	132.758
2.525	149.822	117.293	132.885
2.5275	149.549	117.439	133.013
2.53	149.276	117.584	133.14
2.5325	149.004	117.728	133.268
2.535	148.732	117.872	133.395
2.5375	148.461	118.016	133.524
2.54	148.19	118.158	133.652
2.5425	147.92	118.3	133.78
2.545	147.649	118.442	133.909
2.5475	147.38	118.582	134.038
2.55	147.111	118.723	134.167
2.5525	146.842	118.862	134.296
2.555	146.574	119.001	134.425
2.5575	146.306	119.139	134.555
2.56	146.039	119.277	134.685
2.5625	145.772	119.414	134.814
2.565	145.505	119.55	134.945
2.5675	145.239	119.686	135.075
2.57	144.974	119.821	135.205
2.5725	144.709	119.955	135.336
2.575	144.444	120.089	135.467
2.5775	144.18	120.222	135.598
2.58	143.917	120.355	135.729
2.5825	143.653	120.486	135.86
2.585	143.391	120.618	135.992
2.5875	143.129	120.748	136.123
2.59	142.867	120.878	136.255
2.5925	142.606	121.007	136.387
2.595	142.345	121.136	136.519
2.5975	142.085	121.264	136.651
2.6	141.825	121.391	136.784
2.6025	141.566	121.518	136.916
2.605	141.307	121.643	137.049
2.6075	141.049	121.769	137.182
2.61	140.792	121.893	137.315
2.6125	140.534	122.017	137.448
2.615	140.278	122.141	137.581
2.6175	140.022	122.263	137.715
2.62	139.766	122.385	137.848
2.6225	139.511	122.507	137.982
2.625	139.257	122.627	138.116
2.6275	139.003	122.747	138.25
2.63	138.749	122.867	138.384
2.6325	138.496	122.985	138.518
2.635	138.244	123.103	138.653
2.6375	137.992	123.221	138.787
2.64	137.741	123.338	138.922
2.6425	137.49	123.454	139.057
2.645	137.239	123.569	139.192
2.6475	136.99	123.684	139.327
2.65	136.741	123.798	139.462
2.6525	136.492	123.911	139.597
2.655	136.244	124.024	139.732
2.6575	135.996	124.136	139.868
2.66	135.75	124.247	140.003
2.6625	135.503	124.358	140.139
2.665	135.257	124.468	140.275
2.6675	135.012	124.577	140.411
2.67	134.767	124.686	140.547
2.6725	134.523	124.794	140.683
2.675	134.28	124.901	140.819
2.6775	134.037	125.008	140.955
2.68	133.794	125.114	141.091
2.6825	133.553	125.22	141.228
2.685	133.311	125.324	141.364
2.6875	133.071	125.428	141.501
2.69	132.83	125.532	141.638
2.6925	132.591	125.634	141.775
2.695	132.352	125.736	141.912
2.6975	132.114	125.838	142.049
2.7	131.876	125.938	142.186
2.7025	131.639	126.038	142.323
2.705	131.402	126.138	142.46
2.7075	131.166	126.237	142.597
2.71	130.931	126.335	142.735
2.7125	130.696	126.432	142.872
2.715	130.462	126.529	143.01
2.7175	130.228	126.625	143.147
2.72	129.995	126.72	143.285
2.7225	129.763	126.815	143.423
2.725	129.531	126.909	143.561
2.7275	129.3	127.002	143.698
2.73	129.069	127.095	143.836
2.7325	128.839	127.187	143.974
2.735	128.61	127.278	144.112
2.7375	128.381	127.369	144.25
2.74	128.153	127.459	144.388
2.7425	127.925	127.548	144.527
2.745	127.698	127.637	144.665
2.7475	127.472	127.725	144.803
2.75	127.246	127.812	144.942
2.7525	127.021	127.899	145.08
2.755	126.796	127.985	145.218
2.7575	126.573	128.071	145.357
2.76	126.349	128.155	145.495
2.7625	126.127	128.239	145.634
2.765	125.905	128.323	145.772
2.7675	125.683	128.406	145.911
2.77	125.463	128.488	146.05
2.7725	125.242	128.569	146.188
2.775	125.023	128.65	146.327
2.7775	124.804	128.73	146.466
2.78	124.586	128.81	146.605
2.7825	124.368	128.889	146.743
2.785	124.151	128.967	146.882
2.7875	123.935	129.044	147.021
2.79	123.719	129.121	147.16
2.7925	123.504	129.197	147.299
2.795	123.289	129.273	147.438
2.7975	123.076	129.348	147.576
2.8	122.862	129.422	147.715
2.8025	122.65	129.496	147.854
2.805	122.438	129.569	147.993
2.8075	122.227	129.641	148.132
2.81	122.016	129.713	148.271
2.8125	121.806	129.784	148.41
2.815	121.597	129.854	148.549
2.8175	121.388	129.924	148.688
2.82	121.18	129.993	148.827
2.8225	120.972	130.062	148.966
2.825	120.765	130.13	149.105
2.8275	120.559	130.197	149.244
2.83	120.354	130.264	149.383
2.8325	120.149	130.33	149.522
2.835	119.945	130.395	149.66
2.8375	119.741	130.46	149.799
2.84	119.538	130.524	149.938
2.8425	119.336	130.587	150.077
2.845	119.134	130.65	150.216
2.8475	118.933	130.712	150.355
2.85	118.733	130.774	150.494
2.8525	118.533	130.835	150.632
2.855	118.334	130.895	150.771
2.8575	118.135	130.955	150.91
2.86	117.938	131.014	151.049
2.8625	117.74	131.072	151.187
2.865	117.544	131.13	151.326
2.8675	117.348	131.187	151.465
2.87	117.153	131.244	151.603
2.8725	116.958	131.3	151.742
2.875	116.764	131.355	151.881
2.8775	116.571	131.41	152.019
2.88	116.378	131.464	152.158
2.8825	116.187	131.517	152.296
2.885	115.995	131.57	152.434
2.8875	115.805	131.623	152.573
2.89	115.615	131.674	152.711
2.8925	115.425	131.725	152.849
2.895	115.236	131.776	152.988
2.8975	115.048	131.826	153.126
2.9	114.861	131.875	153.264
2.9025	114.674	131.924	153.402
2.905	114.488	131.972	153.54
2.9075	114.303	132.019	153.678
2.91	114.118	132.066	153.816
2.9125	113.934	132.113	153.954
2.915	113.75	132.158	154.092
2.9175	113.567	132.204	154.229
2.92	113.385	132.248	154.367
2.9225	113.203	132.292	154.505
2.925	113.022	132.335	154.642
2.9275	112.842	132.378	154.78
2.93	112.662	132.42	154.917
2.9325	112.483	132.462	155.055
2.935	112.305	132.503	155.192
2.9375	112.127	132.544	155.329
2.94	111.95	132.583	155.466
2.9425	111.774	132.623	155.603
2.945	111.598	132.662	155.74
2.9475	111.423	132.7	155.877
2.95	111.248	132.737	156.014
2.9525	111.075	132.774	156.151
2.955	110.901	132.811	156.288
2.9575	110.729	132.847	156.424
2.96	110.557	132.882	156.561
2.9625	110.386	132.917	156.697
2.965	110.215	132.951	156.834
2.9675	110.045	132.985	156.97
2.97	109.876	133.018	157.106
2.9725	109.707	133.051	157.242
2.975	109.539	133.083	157.378
2.9775	109.372	133.114	157.514
2.98	109.205	133.145	157.65
2.9825	109.039	133.175	157.786
2.985	108.873	133.205	157.922
2.9875	108.709	133.234	158.057
2.99	108.544	133.263	158.193
2.9925	108.381	133.291	158.328
2.995	108.218	133.319	158.463
2.9975	108.056	133.346	158.598
3	107.894	133.373	158.733
3.0025	107.733	133.399	158.868
3.005	107.573	133.424	159.003
3.0075	107.413	133.449	159.138
3.01	107.254	133.474	159.273
3.0125	107.095	133.498	159.407
3.015	106.937	133.521	159.542
3.0175	106.78	133.544	159.676
3.02	106.624	133.566	159.81
3.0225	106.468	133.588	159.944
3.025	106.312	133.61	160.078
3.0275	106.158	133.63	160.212
3.03	106.003	133.651	160.346
3.0325	105.85	133.67	160.479
3.035	105.697	133.69	160.613
3.0375	105.545	133.709	160.746
3.04	105.393	133.727	160.88
3.0425	105.243	133.745	161.013
3.045	105.092	133.762	161.146
3.0475	104.943	133.779	161.279
3.05	104.793	133.795	161.412
3.0525	104.645	133.811	161.544
3.055	104.497	133.826	161.677
3.0575	104.35	133.841	161.809
3.06	104.203	133.855	161.941
3.0625	104.057	133.869	162.074
3.065	103.912	133.882	162.206
3.0675	103.767	133.895	162.337
3.07	103.623	133.908	162.469
3.0725	103.48	133.919	162.601
3.075	103.337	133.931	162.732
3.0775	103.195	133.942	162.864
3.08	103.053	133.952	162.995
3.0825	102.912	133.962	163.126
3.085	102.771	133.972	163.257
3.0875	102.632	133.981	163.388
3.09	102.492	133.989	163.518
3.0925	102.354	133.997	163.649
3.095	102.216	134.005	163.779
3.0975	102.078	134.012	163.909
3.1	101.941	134.019	164.039
3.1025	101.805	134.025	164.169
3.105	101.67	134.031	164.299
3.1075	101.535	134.037	164.429
3.11	101.4	134.041	164.558
3.1125	101.266	134.046	164.688
3.115	101.133	134.05	164.817
3.1175	101.001	134.054	164.946
3.12	100.869	134.057	165.075
3.1225	100.737	134.059	165.203
3.125	100.606	134.062	165.332
3.1275	100.476	134.063	165.46
3.13	100.347	134.065	165.589
3.1325	100.218	134.066	165.717
3.135	100.089	134.066	165.845
3.1375	99.9612	134.066	165.972
3.14	99.8339	134.066	166.1
3.1425	99.7073	134.065	166.228
3.145	99.5812	134.064	166.355
3.1475	99.4556	134.062	166.482
3.15	99.3307	134.06	166.609
3.1525	99.2063	134.058	166.736
3.155	99.0826	134.055	166.862
3.1575	98.9594	134.052	166.989
3.16	98.8368	134.048	167.115
3.1625	98.7147	134.044	167.241
3.165	98.5933	134.039	167.367
3.1675	98.4724	134.035	167.493
3.17	98.352	134.029	167.619
3.1725	98.2323	134.023	167.744
3.175	98.1131	134.017	167.869
3.1775	97.9945	134.011	167.995
3.18	97.8765	134.004	168.12
3.1825	97.759	133.997	168.244
3.185	97.6421	133.989	168.369
3.1875	97.5258	133.981	168.493
3.19	97.4101	133.972	168.618
3.1925	97.2949	133.963	168.742
3.195	97.1802	133.954	168.866
3.1975	97.0661	133.945	168.989
3.2	96.9526	133.935	169.113
3.2025	96.8396	133.924	169.236
3.205	96.7272	133.913	169.359
3.2075	96.6154	133.902	169.482
3.21	96.5041	133.891	169.605
3.2125	96.3934	133.879	169.728
3.215	96.2832	133.867	169.85
3.2175	96.1735	133.854	169.972
3.22	96.0644	133.841	170.095
3.2225	95.9559	133.828	170.216
3.225	95.8479	133.814	170.338
3.2275	95.7404	133.8	170.46
3.23	95.6335	133.785	170.581
3.2325	95.5272	133.771	170.702
3.235	95.4214	133.756	170.823
3.2375	95.3161	133.74	170.944
3.24	95.2113	133.724	171.064
3.2425	95.1071	133.708	171.185
3.245	95.0035	133.691	171.305
3.2475	94.9003	133.675	171.425
3.25	94.7977	133.657	171.545
3.2525	94.6957	133.64	171.664
3.255	94.5942	133.622	171.784
3.2575	94.4932	133.604	171.903
3.26	94.3927	133.585	172.022
3.2625	94.2927	133.566	172.141
3.265	94.1933	133.547	172.26
3.2675	94.0944	133.528	172.378
3.27	93.9961	133.508	172.496
3.2725	93.8982	133.487	172.614
3.275	93.8009	133.467	172.732
3.2775	93.7041	133.446	172.85
3.28	93.6078	133.425	172.967
3.2825	93.512	133.403	173.085
3.285	93.4167	133.382	173.202
3.2875	93.322	133.36	173.318
3.29	93.2278	133.337	173.435
3.2925	93.1341	133.314	173.552
3.295	93.0409	133.291	173.668
3.2975	92.9482	133.268	173.784
3.3	92.856	133.244	173.9
3.3025	92.7643	133.22	174.015
3.305	92.6731	133.196	174.131
3.3075	92.5824	133.172	174.246
3.31	92.4922	133.147	174.361
3.3125	92.4026	133.122	174.476
3.315	92.3134	133.096	174.59
3.3175	92.2247	133.07	174.705
3.32	92.1365	133.044	174.819
3.3225	92.0488	133.018	174.933
3.325	91.9617	132.992	175.047
3.3275	91.875	132.965	175.16
3.33	91.7888	132.938	175.274
3.3325	91.703	132.91	175.387
3.335	91.6178	132.882	175.5
3.3375	91.5331	132.854	175.613
3.34	91.4488	132.826	175.725
3.3425	91.365	132.798	175.837
3.345	91.2817	132.769	175.949
3.3475	91.1989	132.74	176.061
3.35	91.1166	132.71	176.173
3.3525	91.0348	132.681	176.284
3.355	90.9534	132.651	176.396
3.3575	90.8725	132.621	176.507
3.36	90.7921	132.59	176.617
3.3625	90.7121	132.56	176.728
3.365	90.6327	132.529	176.838
3.3675	90.5537	132.498	176.949
3.37	90.4751	132.466	177.059
3.3725	90.3971	132.435	177.168
3.375	90.3195	132.403	177.278
3.3775	90.2423	132.371	177.387
3.38	90.1657	132.338	177.496
3.3825	90.0895	132.305	177.605
3.385	90.0137	132.273	177.714
3.3875	89.9384	132.239	177.822
3.39	89.8636	132.206	177.93
3.3925	89.7892	132.172	178.038
3.395	89.7153	132.139	178.146
3.3975	89.6418	132.104	178.254
3.4	89.5688	132.07	178.361
3.4025	89.4963	132.036	178.468
3.405	89.4242	132.001	178.575
3.4075	89.3525	131.966	178.682
3.41	89.2813	131.931	178.788
3.4125	89.2105	131.895	178.894
3.415	89.1402	131.859	179
3.4175	89.0703	131.823	179.106
3.42	89.0009	131.787	179.212
3.4225	88.9319	131.751	179.317
3.425	88.8634	131.714	179.422
3.4275	88.7952	131.678	179.527
3.43	88.7276	131.641	179.632
3.4325	88.6603	131.603	179.736
3.435	88.5935	131.566	179.84
3.4375	88.5271	131.528	179.944
3.44	88.4612	131.491	180.048
3.4425	88.3956	131.453	180.152
3.445	88.3306	131.414	180.255
3.4475	88.2659	131.376	180.358
3.45	88.2016	131.337	180.461
3.4525	88.1378	131.298	180.564
3.455	88.0744	131.259	180.666
3.4575	88.0115	131.22	180.768
3.46	87.9489	131.181	180.87
3.4625	87.8868	131.141	180.972
3.465	87.8251	131.101	181.074
3.4675	87.7638	131.061	181.175
3.47	87.7029	131.021	181.276
3.4725	87.6424	130.981	181.377
3.475	87.5824	130.94	181.477
3.4775	87.5227	130.899	181.578
3.48	87.4635	130.859	181.678
3.4825	87.4046	130.817	181.778
3.485	87.3462	130.776	181.878
3.4875	87.2882	130.735	181.977
3.49	87.2306	130.693	182.076
3.4925	87.1734	130.651	182.175
3.495	87.1165	130.609	182.274
3.4975	87.0601	130.567	182.373
3.5	87.0041	130.525	182.471
3.5025	86.9485	130.482	182.569
3.505	86.8933	130.44	182.667
3.5075	86.8385	130.397	182.765
3.51	86.784	130.354	182.862
3.5125	86.73	130.311	182.959
3.515	86.6763	130.267	183.056
3.5175	86.6231	130.224	183.153
3.52	86.5702	130.18	183.25
3.5225	86.5177	130.136	183.346
3.525	86.4656	130.093	183.442
3.5275	86.4139	130.048	183.538
3.53	86.3625	130.004	183.633
3.5325	86.3116	129.96	183.729
3.535	86.261	129.915	183.824
3.5375	86.2108	129.871	183.919
3.54	86.161	129.826	184.013
3.5425	86.1116	129.781	184.108
3.545	86.0625	129.736	184.202
3.5475	86.0138	129.69	184.296
3.55	85.9655	129.645	184.39
3.5525	85.9175	129.599	184.483
3.555	85.8699	129.554	184.576
3.5575	85.8227	129.508	184.67
3.56	85.7759	129.462	184.762
3.5625	85.7294	129.416	184.855
3.565	85.6833	129.369	184.947
3.5675	85.6375	129.323	185.039
3.57	85.5921	129.277	185.131
3.5725	85.5471	129.23	185.223
3.575	85.5024	129.183	185.314
3.5775	85.4581	129.136	185.406
3.58	85.4141	129.089	185.497
3.5825	85.3705	129.042	185.587
3.585	85.3273	128.995	185.678
3.5875	85.2844	128.948	185.768
3.59	85.2419	128.9	185.858
3.5925	85.1997	128.852	185.948
3.595	85.1578	128.805	186.037
3.5975	85.1163	128.757	186.127
3.6	85.0752	128.709	186.216
3.6025	85.0344	128.661	186.305
3.605	84.9939	128.613	186.394
3.6075	84.9538	128.564	186.482
3.61	84.914	128.516	186.57
3.6125	84.8746	128.467	186.658
3.615	84.8355	128.419	186.746
3.6175	84.7967	128.37	186.833
3.62	84.7583	128.321	186.921
3.6225	84.7202	128.272	187.008
3.625	84.6824	128.223	187.094
3.6275	84.645	128.174	187.181
3.63	84.6079	128.125	187.267
3.6325	84.5712	128.075	187.353
3.635	84.5347	128.026	187.439
3.6375	84.4986	127.976	187.525
3.64	84.4629	127.927	187.61
3.6425	84.4274	127.877	187.696
3.645	84.3923	127.827	187.781
3.6475	84.3575	127.777	187.865
3.65	84.323	127.727	187.95
3.6525	84.2888	127.677	188.034
3.655	84.255	127.627	188.118
3.6575	84.2215	127.577	188.202
3.66	84.1883	127.526	188.285
3.6625	84.1554	127.476	188.369
3.665	84.1228	127.425	188.452
3.6675	84.0905	127.375	188.535
3.67	84.0586	127.324	188.617
3.6725	84.0269	127.273	188.7
3.675	83.9956	127.222	188.782
3.6775	83.9646	127.171	188.864
3.68	83.9339	127.12	188.946
3.6825	83.9035	127.069	189.027
3.685	83.8734	127.018	189.109
3.6875	83.8436	126.967	189.19
3.69	83.8141	126.916	189.27
3.6925	83.7849	126.864	189.351
3.695	83.756	126.813	189.431
3.6975	83.7274	126.761	189.511
3.7	83.6991	126.71	189.591
3.7025	83.6711	126.658	189.671
3.705	83.6434	126.606	189.75
3.7075	83.616	126.554	189.83
3.71	83.5889	126.502	189.909
3.7125	83.562	126.451	189.987
3.715	83.5355	126.399	190.066
3.7175	83.5093	126.346	190.144
3.72	83.4833	126.294	190.222
3.7225	83.4577	126.242	190.3
3.725	83.4323	126.19	190.378
3.7275	83.4072	126.138	190.455
3.73	83.3824	126.085	190.532
3.7325	83.3579	126.033	190.609
3.735	83.3336	125.98	190.686
3.7375	83.3096	125.928	190.762
3.74	83.286	125.875	190.839
3.7425	83.2626	125.823	190.915
3.745	83.2394	125.77	190.991
3.7475	83.2166	125.717	191.066
3.75	83.194	125.665	191.141
3.7525	83.1717	125.612	191.217
3.755	83.1497	125.559	191.291
3.7575	83.1279	125.506	191.366
3.76	83.1064	125.453	191.441
3.7625	83.0852	125.4	191.515
3.765	83.0643	125.347	191.589
3.7675	83.0436	125.294	191.663
3.77	83.0232	125.241	191.736
3.7725	83.0031	125.187	191.809
3.775	82.9832	125.134	191.883
3.7775	82.9636	125.081	191.955
3.78	82.9442	125.028	192.028
3.7825	82.9251	124.974	192.1
3.785	82.9063	124.921	192.173
3.7875	82.8877	124.868	192.245
3.79	82.8694	124.814	192.316
3.7925	82.8513	124.761	192.388
3.795	82.8335	124.707	192.459
3.7975	82.816	124.654	192.53
3.8	82.7987	124.6	192.601
3.8025	82.7817	124.547	192.672
3.805	82.7649	124.493	192.742
3.8075	82.7483	124.439	192.812
3.81	82.732	124.386	192.882
3.8125	82.716	124.332	192.952
3.815	82.7002	124.278	193.022
3.8175	82.6847	124.224	193.091
3.82	82.6694	124.171	193.16
3.8225	82.6543	124.117	193.229
3.825	82.6395	124.063	193.298
3.8275	82.6249	124.009	193.366
3.83	82.6106	123.955	193.434
3.8325	82.5965	123.901	193.502
3.835	82.5827	123.847	193.57
3.8375	82.5691	123.793	193.638
3.84	82.5557	123.739	193.705
3.8425	82.5426	123.686	193.772
3.845	82.5297	123.632	193.839
3.8475	82.517	123.578	193.906
3.85	82.5046	123.523	193.972
3.8525	82.4924	123.469	194.038
3.855	82.4804	123.415	194.104
3.8575	82.4686	123.361	194.17
3.86	82.4571	123.307	194.236
3.8625	82.4459	123.253	194.301
3.865	82.4348	123.199	194.366
3.8675	82.424	123.145	194.431
3.87	82.4134	123.091	194.496
3.8725	82.403	123.037	194.56
3.875	82.3928	122.983	194.625
3.8775	82.3829	122.928	194.689
3.88	82.3732	122.874	194.752
3.8825	82.3637	122.82	194.816
3.885	82.3545	122.766	194.88
3.8875	82.3454	122.712	194.943
3.89	82.3366	122.658	195.006
3.8925	82.328	122.604	195.068
3.895	82.3196	122.549	195.131
3.8975	82.3114	122.495	195.193
3.9	82.3034	122.441	195.256
3.9025	82.2956	122.387	195.317
3.905	82.2881	122.333	195.379
3.9075	82.2808	122.279	195.441
3.91	82.2736	122.224	195.502
3.9125	82.2667	122.17	195.563
3.915	82.26	122.116	195.624
3.9175	82.2535	122.062	195.685
3.92	82.2472	122.008	195.745
3.9225	82.2412	121.954	195.805
3.925	82.2353	121.899	195.865
3.9275	82.2296	121.845	195.925
3.93	82.2241	121.791	195.985
3.9325	82.2188	121.737	196.044
3.935	82.2138	121.683	196.103
3.9375	82.2089	121.629	196.162
3.94	82.2042	121.575	196.221
3.9425	82.1998	121.521	196.28
3.945	82.1955	121.467	196.338
3.9475	82.1914	121.413	196.396
3.95	82.1875	121.358	196.454
3.9525	82.1838	121.304	196.512
3.955	82.1803	121.25	196.569
3.9575	82.177	121.196	196.627
3.96	82.1739	121.142	196.684
3.9625	82.171	121.088	196.741
3.965	82.1683	121.034	196.797
3.9675	82.1657	120.981	196.854
3.97	82.1634	120.927	196.91
3.9725	82.1612	120.873	196.966
3.975	82.1592	120.819	197.022
3.9775	82.1575	120.765	197.078
3.98	82.1559	120.711	197.133
3.9825	82.1544	120.657	197.188
3.985	82.1532	120.603	197.243
3.9875	82.1521	120.55	197.298
3.99	82.1513	120.496	197.353
3.9925	82.1506	120.442	197.407
3.995	82.1501	120.388	197.462
3.9975	82.1497	120.335	197.516
4	82.1496	120.281	197.569
4.0025	82.1496	120.227	197.623
4.005	82.1498	120.174	197.677
4.0075	82.1502	120.12	197.73
4.01	82.1507	120.066	197.783
4.0125	82.1515	120.013	197.836
4.015	82.1524	119.959	197.888
4.0175	82.1534	119.906	197.941
4.02	82.1547	119.852	197.993
4.0225	82.1561	119.799	198.045
4.025	82.1577	119.745	198.097
4.0275	82.1595	119.692	198.149
4.03	82.1614	119.639	198.2
4.0325	82.1635	119.585	198.251
4.035	82.1657	119.532	198.302
4.0375	82.1682	119.479	198.353
4.04	82.1707	119.425	198.404
4.0425	82.1735	119.372	198.454
4.045	82.1764	119.319	198.504
4.0475	82.1795	119.266	198.555
4.05	82.1827	119.213	198.604
4.0525	82.1861	119.16	198.654
4.055	82.1897	119.107	198.704
4.0575	82.1934	119.054	198.753
4.06	82.1973	119.001	198.802
4.0625	82.2014	118.948	198.851
4.065	82.2056	118.895	198.9
4.0675	82.2099	118.842	198.948
4.07	82.2144	118.789	198.996
4.0725	82.2191	118.736	199.045
4.075	82.2239	118.684	199.093
4.0775	82.2289	118.631	199.14
4.08	82.234	118.578	199.188
4.0825	82.2393	118.526	199.235
4.085	82.2448	118.473	199.282
4.0875	82.2503	118.42	199.329
4.09	82.2561	118.368	199.376
4.0925	82.262	118.315	199.423
4.095	82.268	118.263	199.469
4.0975	82.2742	118.21	199.515
4.1	82.2805	118.158	199.561
4.1025	82.287	118.106	199.607
4.105	82.2936	118.054	199.653
4.1075	82.3003	118.001	199.698
4.11	82.3072	117.949	199.744
4.1125	82.3143	117.897	199.789
4.115	82.3215	117.845	199.834
4.1175	82.3288	117.793	199.878
4.12	82.3363	117.741	199.923
4.1225	82.3439	117.689	199.967
4.125	82.3517	117.637	200.011
4.1275	82.3596	117.585	200.055
4.13	82.3676	117.533	200.099
4.1325	82.3758	117.481	200.143
4.135	82.3841	117.43	200.186
4.1375	82.3925	117.378	200.23
4.14	82.4011	117.326	200.273
4.1425	82.4098	117.275	200.316
4.145	82.4187	117.223	200.358
4.1475	82.4276	117.172	200.401
4.15	82.4367	117.12	200.443
4.1525	82.446	117.069	200.485
4.155	82.4554	117.017	200.527
4.1575	82.4649	116.966	200.569
4.16	82.4745	116.915	200.611
4.1625	82.4843	116.864	200.652
4.165	82.4942	116.813	200.693
4.1675	82.5042	116.761	200.734
4.17	82.5143	116.71	200.775
4.1725	82.5246	116.659	200.816
4.175	82.535	116.608	200.857
4.1775	82.5455	116.558	200.897
4.18	82.5562	116.507	200.937
4.1825	82.567	116.456	200.977
4.185	82.5779	116.405	201.017
4.1875	82.5889	116.355	201.057
4.19	82.6	116.304	201.096
4.1925	82.6113	116.253	201.135
4.195	82.6227	116.203	201.174
4.1975	82.6342	116.152	201.213
4.2	82.6458	116.102	201.252
4.2025	82.6575	116.052	201.291
4.205	82.6694	116.001	201.329
4.2075	82.6814	115.951	201.367
4.21	82.6935	115.901	201.406
4.2125	82.7057	115.851	201.443
4.215	82.718	115.801	201.481
4.2175	82.7304	115.751	201.519
4.22	82.743	115.701	201.556
4.2225	82.7557	115.651	201.593
4.225	82.7684	115.601	201.63
4.2275	82.7813	115.551	201.667
4.23	82.7943	115.502	201.704
4.2325	82.8074	115.452	201.741
4.235	82.8207	115.402	201.777
4.2375	82.834	115.353	201.813
4.24	82.8474	115.303	201.849
4.2425	82.861	115.254	201.885
4.245	82.8747	115.205	201.921
4.2475	82.8884	115.155	201.956
4.25	82.9023	115.106	201.992
4.2525	82.9163	115.057	202.027
4.255	82.9304	115.008	202.062
4.2575	82.9445	114.959	202.097
4.26	82.9588	114.91	202.131
4.2625	82.9732	114.861	202.166
4.265	82.9877	114.812	202.2
4.2675	83.0023	114.763	202.234
4.27	83.017	114.714	202.269
4.2725	83.0318	114.666	202.302
4.275	83.0467	114.617	202.336
4.2775	83.0618	114.569	202.37
4.28	83.0769	114.52	202.403
4.2825	83.0921	114.472	202.436
4.285	83.1074	114.423	202.469
4.2875	83.1228	114.375	202.502
4.29	83.1383	114.327	202.535
4.2925	83.1539	114.279	202.567
4.295	83.1695	114.231	202.6
4.2975	83.1853	114.183	202.632
4.3	83.2012	114.135	202.664
4.3025	83.2172	114.087	202.696
4.305	83.2332	114.039	202.728
4.3075	83.2494	113.991	202.759
4.31	83.2657	113.943	202.791
4.3125	83.282	113.896	202.822
4.315	83.2984	113.848	202.853
4.3175	83.315	113.801	202.884
4.32	83.3316	113.753	202.915
4.3225	83.3483	113.706	202.946
4.325	83.3651	113.659	202.976
4.3275	83.382	113.611	203.007
4.33	83.399	113.564	203.037
4.3325	83.416	113.517	203.067
4.335	83.4332	113.47	203.097
4.3375	83.4504	113.423	203.127
4.34	83.4677	113.376	203.156
4.3425	83.4851	113.329	203.186
4.345	83.5026	113.283	203.215
4.3475	83.5202	113.236	203.244
4.35	83.5379	113.189	203.273
4.3525	83.5556	113.143	203.302
4.355	83.5734	113.096	203.33
4.3575	83.5913	113.05	203.359
4.36	83.6093	113.004	203.387
4.3625	83.6274	112.957	203.415
4.365	83.6455	112.911	203.443
4.3675	83.6638	112.865	203.471
4.37	83.6821	112.819	203.499
4.3725	83.7005	112.773	203.527
4.375	83.7189	112.727	203.554
4.3775	83.7375	112.681	203.581
4.38	83.7561	112.635	203.609
4.3825	83.7748	112.59	203.636
4.385	83.7936	112.544	203.662
4.3875	83.8125	112.498	203.689
4.39	83.8314	112.453	203.716
4.3925	83.8504	112.408	203.742
4.395	83.8695	112.362	203.768
4.3975	83.8886	112.317	203.794
4.4	83.9078	112.272	203.82
4.4025	83.9271	112.227	203.846
4.405	83.9465	112.182	203.872
4.4075	83.966	112.137	203.898
4.41	83.9855	112.092	203.923
4.4125	84.0051	112.047	203.948
4.415	84.0247	112.002	203.973
4.4175	84.0445	111.957	203.998
4.42	84.0643	111.913	204.023
4.4225	84.0841	111.868	204.048
4.425	84.1041	111.824	204.072
4.4275	84.1241	111.779	204.097
4.43	84.1441	111.735	204.121
4.4325	84.1643	111.691	204.145
4.435	84.1845	111.646	204.169
4.4375	84.2047	111.602	204.193
4.44	84.2251	111.558	204.217
4.4425	84.2455	111.514	204.24
4.445	84.266	111.471	204.264
4.4475	84.2865	111.427	204.287
4.45	84.3071	111.383	204.31
4.4525	84.3277	111.339	204.333
4.455	84.3485	111.296	204.356
4.4575	84.3693	111.252	204.379
4.46	84.3901	111.209	204.401
4.4625	84.411	111.165	204.424
4.465	84.432	111.122	204.446
4.4675	84.453	111.079	204.468
4.47	84.4741	111.036	204.49
4.4725	84.4953	110.993	204.512
4.475	84.5165	110.95	204.534
4.4775	84.5377	110.907	204.555
4.48	84.5591	110.864	204.577
4.4825	84.5804	110.821	204.598
4.485	84.6019	110.779	204.62
4.4875	84.6234	110.736	204.641
4.49	84.645	110.693	204.662
4.4925	84.6666	110.651	204.682
4.495	84.6882	110.609	204.703
4.4975	84.71	110.566	204.724
4.5	84.7317	110.524	204.744
4.5025	84.7536	110.482	204.765
4.505	84.7755	110.44	204.785
4.5075	84.7974	110.398	204.805
4.51	84.8194	110.356	204.825
4.5125	84.8415	110.314	204.844
4.515	84.8636	110.272	204.864
4.5175	84.8857	110.231	204.884
4.52	84.9079	110.189	204.903
4.5225	84.9302	110.147	204.922
4.525	84.9525	110.106	204.942
4.5275	84.9748	110.065	204.961
4.53	84.9972	110.023	204.979
4.5325	85.0197	109.982	204.998
4.535	85.0422	109.941	205.017
4.5375	85.0648	109.9	205.035
4.54	85.0874	109.859	205.054
4.5425	85.11	109.818	205.072
4.545	85.1327	109.777	205.09
4.5475	85.1555	109.736	205.108
4.55	85.1783	109.696	205.126
4.5525	85.2011	109.655	205.144
4.555	85.224	109.615	205.162
4.5575	85.2469	109.574	205.179
4.56	85.2699	109.534	205.196
4.5625	85.2929	109.493	205.214
4.565	85.316	109.453	205.231
4.5675	85.3391	109.413	205.248
4.57	85.3622	109.373	205.265
4.5725	85.3854	109.333	205.282
4.575	85.4087	109.293	205.298
4.5775	85.4319	109.253	205.315
4.58	85.4553	109.213	205.331
4.5825	85.4786	109.174	205.348
4.585	85.502	109.134	205.364
4.5875	85.5255	109.095	205.38
4.59	85.549	109.055	205.396
4.5925	85.5725	109.016	205.412
4.595	85.596	108.977	205.427
4.5975	85.6197	108.937	205.443
4.6	85.6433	108.898	205.458
4.6025	85.667	108.859	205.474
4.605	85.6907	108.82	205.489
4.6075	85.7145	108.781	205.504
4.61	85.7383	108.743	205.519
4.6125	85.7621	108.704	205.534
4.615	85.786	108.665	205.549
4.6175	85.8099	108.627	205.564
4.62	85.8338	108.588	205.578
4.6225	85.8578	108.55	205.593
4.625	85.8818	108.511	205.607
4.6275	85.9058	108.473	205.621
4.63	85.9299	108.435	205.635
4.6325	85.954	108.397	205.649
4.635	85.9782	108.359	205.663
4.6375	86.0024	108.321	205.677
4.64	86.0266	108.283	205.69
4.6425	86.0508	108.245	205.704
4.645	86.0751	108.208	205.717
4.6475	86.0994	108.17	205.731
4.65	86.1238	108.132	205.744
4.6525	86.1481	108.095	205.757
4.655	86.1726	108.057	205.77
4.6575	86.197	108.02	205.783
4.66	86.2215	107.983	205.796
4.6625	86.246	107.946	205.808
4.665	86.2705	107.909	205.821
4.6675	86.295	107.872	205.833
4.67	86.3196	107.835	205.846
4.6725	86.3442	107.798	205.858
4.675	86.3689	107.761	205.87
4.6775	86.3936	107.724	205.882
4.68	86.4183	107.688	205.894
4.6825	86.443	107.651	205.906
4.685	86.4677	107.615	205.917
4.6875	86.4925	107.579	205.929
4.69	86.5173	107.542	205.94
4.6925	86.5422	107.506	205.952
4.695	86.567	107.47	205.963
4.6975	86.5919	107.434	205.974
4.7	86.6168	107.398	205.985
4.7025	86.6417	107.362	205.996
4.705	86.6667	107.326	206.007
4.7075	86.6917	107.29	206.018
4.71	86.7167	107.255	206.029
4.7125	86.7417	107.219	206.039
4.715	86.7668	107.184	206.05
4.7175	86.7918	107.148	206.06
4.72	86.8169	107.113	206.07
4.7225	86.842	107.078	206.08
4.725	86.8672	107.042	206.09
4.7275	86.8924	107.007	206.1
4.73	86.9175	106.972	206.11
4.7325	86.9427	106.937	206.12
4.735	86.968	106.903	206.13
4.7375	86.9932	106.868	206.139
4.74	87.0185	106.833	206.148
4.7425	87.0438	106.798	206.158
4.745	87.0691	106.764	206.167
4.7475	87.0944	106.729	206.176
4.75	87.1197	106.695	206.185
4.7525	87.1451	106.661	206.194
4.755	87.1705	106.626	206.203
4.7575	87.1959	106.592	206.212
4.76	87.2213	106.558	206.221
4.7625	87.2467	106.524	206.229
4.765	87.2721	106.49	206.238
4.7675	87.2976	106.456	206.246
4.77	87.3231	106.423	206.254
4.7725	87.3486	106.389	206.262
4.775	87.3741	106.355	206.271
4.7775	87.3996	106.322	206.279
4.78	87.4252	106.288	206.286
4.7825	87.4507	106.255	206.294
4.785	87.4763	106.222	206.302
4.7875	87.5019	106.188	206.31
4.79	87.5275	106.155	206.317
4.7925	87.5531	106.122	206.325
4.795	87.5787	106.089	206.332
4.7975	87.6044	106.056	206.339
4.8	87.63	106.024	206.346
4.8025	87.6557	105.991	206.353
4.805	87.6814	105.958	206.36
4.8075	87.7071	105.926	206.367
4.81	87.7328	105.893	206.374
4.8125	87.7585	105.861	206.381
4.815	87.7842	105.828	206.388
4.8175	87.81	105.796	206.394
4.82	87.8357	105.764	206.401
4.8225	87.8615	105.732	206.407
4.825	87.8872	105.7	206.413
4.8275	87.913	105.668	206.419
4.83	87.9388	105.636	206.425
4.8325	87.9646	105.604	206.431
4.835	87.9904	105.572	206.437
4.8375	88.0162	105.541	206.443
4.84	88.0421	105.509	206.449
4.8425	88.0679	105.477	206.455
4.845	88.0937	105.446	206.46
4.8475	88.1196	105.415	206.466
4.85	88.1455	105.383	206.471
4.8525	88.1713	105.352	206.476
4.855	88.1972	105.321	206.482
4.8575	88.2231	105.29	206.487
4.86	88.249	105.259	206.492
4.8625	88.2749	105.228	206.497
4.865	88.3008	105.197	206.502
4.8675	88.3267	105.167	206.507
4.87	88.3526	105.136	206.511
4.8725	88.3785	105.105	206.516
4.875	88.4044	105.075	206.521
4.8775	88.4303	105.045	206.525
4.88	88.4563	105.014	206.53
4.8825	88.4822	104.984	206.534
4.885	88.5081	104.954	206.538
4.8875	88.5341	104.924	206.542
4.89	88.56	104.894	206.546
4.8925	88.586	104.864	206.55
4.895	88.6119	104.834	206.554
4.8975	88.6379	104.804	206.558
4.9	88.6639	104.774	206.562
4.9025	88.6898	104.745	206.566
4.905	88.7158	104.715	206.569
4.9075	88.7417	104.685	206.573
4.91	88.7677	104.656	206.576
4.9125	88.7937	104.627	206.58
4.915	88.8197	104.597	206.583
4.9175	88.8456	104.568	206.586
4.92	88.8716	104.539	206.589
4.9225	88.8976	104.51	206.592
4.925	88.9235	104.481	206.595
4.9275	88.9495	104.452	206.598
4.93	88.9755	104.423	206.601
4.9325	89.0015	104.395	206.604
4.935	89.0274	104.366	206.607
4.9375	89.0534	104.337	206.609
4.94	89.0794	104.309	206.612
4.9425	89.1053	104.28	206.614
4.945	89.1313	104.252	206.617
4.9475	89.1573	104.224	206.619
4.95	89.1832	104.196	206.621
4.9525	89.2092	104.167	206.623
4.955	89.2352	104.139	206.626
4.9575	89.2611	104.111	206.628
4.96	89.2871	104.083	206.63
4.9625	89.313	104.056	206.631
4.965	89.339	104.028	206.633
4.9675	89.3649	104	206.635
4.97	89.3909	103.973	206.637
4.9725	89.4168	103.945	206.638
4.975	89.4428	103.917	206.64
4.9775	89.4687	103.89	206.641
4.98	89.4946	103.863	206.643
4.9825	89.5205	103.836	206.644
4.985	89.5465	103.808	206.645
4.9875	89.5724	103.781	206.646
4.99	89.5983	103.754	206.647
4.9925	89.6242	103.727	206.648
4.995	89.6501	103.7	206.649
4.9975	89.676	103.674	206.65
5	89.7018	103.647	206.651
5.0025	89.7277	103.62	206.652
5.005	89.7536	103.594	206.653
5.0075	89.7795	103.567	206.653
5.01	89.8053	103.541	206.654
5.0125	89.8312	103.514	206.654
5.015	89.857	103.488	206.655
5.0175	89.8828	103.462	206.655
5.02	89.9087	103.436	206.655
5.0225	89.9345	103.41	206.656
5.025	89.9603	103.384	206.656
5.0275	89.9861	103.358	206.656
5.03	90.0119	103.332	206.656
5.0325	90.0377	103.306	206.656
5.035	90.0635	103.281	206.656
5.0375	90.0892	103.255	206.656
5.04	90.115	103.229	206.656
5.0425	90.1408	103.204	206.655
5.045	90.1665	103.179	206.655
5.0475	90.1922	103.153	206.655
5.05	90.218	103.128	206.654
5.0525	90.2437	103.103	206.654
5.055	90.2694	103.078	206.653
5.0575	90.2951	103.053	206.652
5.06	90.3207	103.028	206.652
5.0625	90.3464	103.003	206.651
5.065	90.3721	102.978	206.65
5.0675	90.3977	102.953	206.649
5.07	90.4234	102.929	206.648
5.0725	90.449	102.904	206.647
5.075	90.4746	102.879	206.646
5.0775	90.5002	102.855	206.645
5.08	90.5258	102.831	206.644
5.0825	90.5514	102.806	206.642
5.085	90.5769	102.782	206.641
5.0875	90.6025	102.758	206.64
5.09	90.628	102.734	206.638
5.0925	90.6536	102.71	206.637
5.095	90.6791	102.686	206.635
5.0975	90.7046	102.662	206.634
5.1	90.7301	102.638	206.632
5.1025	90.7555	102.614	206.63
5.105	90.781	102.591	206.628
5.1075	90.8064	102.567	206.627
5.11	90.8319	102.543	206.625
5.1125	90.8573	102.52	206.623
5.115	90.8827	102.496	206.621
5.1175	90.9081	102.473	206.619
5.12	90.9335	102.45	206.617
5.1225	90.9588	102.427	206.614
5.125	90.9842	102.404	206.612
5.1275	91.0095	102.381	206.61
5.13	91.0348	102.358	206.608
5.1325	91.0601	102.335	206.605
5.135	91.0854	102.312	206.603
5.1375	91.1107	102.289	206.6
5.14	91.1359	102.266	206.598
5.1425	91.1612	102.244	206.595
5.145	91.1864	102.221	206.592
5.1475	91.2116	102.199	206.59
5.15	91.2368	102.176	206.587
5.1525	91.2619	102.154	206.584
5.155	91.2871	102.132	206.581
5.1575	91.3122	102.109	206.578
5.16	91.3373	102.087	206.575
5.1625	91.3624	102.065	206.572
5.165	91.3875	102.043	206.569
5.1675	91.4126	102.021	206.566
5.17	91.4376	101.999	206.563
5.1725	91.4627	101.978	206.56
5.175	91.4877	101.956	206.556
5.1775	91.5127	101.934	206.553
5.18	91.5376	101.913	206.55
5.1825	91.5626	101.891	206.546
5.185	91.5875	101.87	206.543
5.1875	91.6125	101.848	206.539
5.19	91.6374	101.827	206.536
5.1925	91.6622	101.806	206.532
5.195	91.6871	101.784	206.528
5.1975	91.712	101.763	206.525
5.2	91.7368	101.742	206.521
5.2025	91.7616	101.721	206.517
5.205	91.7864	101.7	206.513
5.2075	91.8111	101.68	206.509
5.21	91.8359	101.659	206.505
5.2125	91.8606	101.638	206.501
5.215	91.8853	101.617	206.497
5.2175	91.91	101.597	206.493
5.22	91.9346	101.576	206.489
5.2225	91.9593	101.556	206.485
5.225	91.9839	101.535	206.481
5.2275	92.0085	101.515	206.476
5.23	92.0331	101.495	206.472
5.2325	92.0576	101.475	206.468
5.235	92.0822	101.455	206.463
5.2375	92.1067	101.435	206.459
5.24	92.1312	101.415	206.454
5.2425	92.1556	101.395	206.45
5.245	92.1801	101.375	206.445
5.2475	92.2045	101.355	206.44
5.25	92.2289	101.335	206.436
5.2525	92.2533	101.316	206.431
5.255	92.2777	101.296	206.426
5.2575	92.302	101.277	206.421
5.26	92.3263	101.257	206.417
5.2625	92.3506	101.238	206.412
5.265	92.3749	101.218	206.407
5.2675	92.3991	101.199	206.402
5.27	92.4234	101.18	206.397
5.2725	92.4476	101.161	206.392
5.275	92.4717	101.142	206.387
5.2775	92.4959	101.123	206.381
5.28	92.52	101.104	206.376
5.2825	92.5441	101.085	206.371
5.285	92.5682	101.066	206.366
5.2875	92.5923	101.047	206.36
5.29	92.6163	101.029	206.355
5.2925	92.6403	101.01	206.35
5.295	92.6643	100.991	206.344
5.2975	92.6882	100.973	206.339
5.3	92.7122	100.955	206.333
5.3025	92.7361	100.936	206.328
5.305	92.76	100.918	206.322
5.3075	92.7838	100.9	206.316
5.31	92.8077	100.882	206.311
5.3125	92.8315	100.863	206.305
5.315	92.8553	100.845	206.299
5.3175	92.879	100.827	206.294
5.32	92.9028	100.809	206.288
5.3225	92.9265	100.792	206.282
5.325	92.9502	100.774	206.276
5.3275	92.9738	100.756	206.27
5.33	92.9975	100.738	206.264
5.3325	93.0211	100.721	206.258
5.335	93.0446	100.703	206.252
5.3375	93.0682	100.686	206.246
5.34	93.0917	100.668	206.24
5.3425	93.1152	100.651	206.234
5.345	93.1387	100.634	206.228
5.3475	93.1622	100.617	206.221
5.35	93.1856	100.599	206.215
5.3525	93.209	100.582	206.209
5.355	93.2323	100.565	206.202
5.3575	93.2557	100.548	206.196
5.36	93.279	100.531	206.19
5.3625	93.3023	100.514	206.183
5.365	93.3255	100.498	206.177
5.3675	93.3488	100.481	206.17
5.37	93.372	100.464	206.164
5.3725	93.3952	100.448	206.157
5.375	93.4183	100.431	206.151
5.3775	93.4414	100.415	206.144
5.38	93.4645	100.398	206.137
5.3825	93.4876	100.382	206.131
5.385	93.5106	100.365	206.124
5.3875	93.5336	100.349	206.117
5.39	93.5566	100.333	206.11
5.3925	93.5796	100.317	206.104
5.395	93.6025	100.301	206.097
5.3975	93.6254	100.285	206.09
5.4	93.6483	100.269	206.083
5.4025	93.6711	100.253	206.076
5.405	93.6939	100.237	206.069
5.4075	93.7167	100.221	206.062
5.41	93.7394	100.206	206.055
5.4125	93.7622	100.19	206.048
5.415	93.7849	100.174	206.041
5.4175	93.8075	100.159	206.034
5.42	93.8302	100.143	206.027
5.4225	93.8528	100.128	206.019
5.425	93.8753	100.113	206.012
5.4275	93.8979	100.097	206.005
5.43	93.9204	100.082	205.998
5.4325	93.9429	100.067	205.99
5.435	93.9654	100.052	205.983
5.4375	93.9878	100.037	205.976
5.44	94.0102	100.022	205.968
5.4425	94.0326	100.007	205.961
5.445	94.0549	99.9918	205.953
5.4475	94.0772	99.977	205.946
5.45	94.0995	99.9622	205.938
5.4525	94.1217	99.9475	205.931
5.455	94.144	99.9328	205.923
5.4575	94.1661	99.9182	205.916
5.46	94.1883	99.9037	205.908
5.4625	94.2104	99.8892	205.9
5.465	94.2325	99.8748	205.893
5.4675	94.2546	99.8604	205.885
5.47	94.2766	99.8461	205.877
5.4725	94.2986	99.8318	205.87
5.475	94.3206	99.8176	205.862
5.4775	94.3425	99.8035	205.854
5.48	94.3644	99.7894	205.846
5.4825	94.3863	99.7753	205.838
5.485	94.4082	99.7614	205.83
5.4875	94.43	99.7474	205.823
5.49	94.4518	99.7336	205.815
5.4925	94.4735	99.7198	205.807
5.495	94.4952	99.706	205.799
5.4975	94.5169	99.6923	205.791
5.5	94.5386	99.6787	205.783
5.5025	94.5602	99.6651	205.775
5.505	94.5818	99.6516	205.767
5.5075	94.6034	99.6381	205.759
5.51	94.6249	99.6247	205.75
5.5125	94.6464	99.6113	205.742
5.515	94.6679	99.598	205.734
5.5175	94.6893	99.5848	205.726
5.52	94.7107	99.5716	205.718
5.5225	94.7321	99.5585	205.709
5.525	94.7534	99.5454	205.701
5.5275	94.7747	99.5323	205.693
5.53	94.796	99.5194	205.685
5.5325	94.8172	99.5065	205.676
5.535	94.8384	99.4936	205.668
5.5375	94.8596	99.4808	205.66
5.54	94.8807	99.468	205.651
5.5425	94.9018	99.4553	205.643
5.545	94.9229	99.4427	205.634
5.5475	94.9439	99.4301	205.626
5.55	94.965	99.4175	205.618
5.5525	94.9859	99.405	205.609
5.555	95.0069	99.3926	205.601
5.5575	95.0278	99.3802	205.592
5.56	95.0487	99.3679	205.583
5.5625	95.0695	99.3556	205.575
5.565	95.0903	99.3434	205.566
5.5675	95.1111	99.3312	205.558
5.57	95.1318	99.3191	205.549
5.5725	95.1525	99.3071	205.54
5.575	95.1732	99.2951	205.532
5.5775	95.1939	99.2831	205.523
5.58	95.2145	99.2712	205.514
5.5825	95.235	99.2593	205.506
5.585	95.2556	99.2476	205.497
5.5875	95.2761	99.2358	205.488
5.59	95.2966	99.2241	205.479
5.5925	95.317	99.2125	205.471
5.595	95.3374	99.2009	205.462
5.5975	95.3578	99.1893	205.453
5.6	95.3781	99.1779	205.444
5.6025	95.3984	99.1664	205.435
5.605	95.4187	99.155	205.426
5.6075	95.4389	99.1437	205.417
5.61	95.4591	99.1324	205.408
5.6125	95.4793	99.1212	205.4
5.615	95.4994	99.11	205.391
5.6175	95.5195	99.0989	205.382
5.62	95.5396	99.0878	205.373
5.6225	95.5596	99.0768	205.364
5.625	95.5796	99.0658	205.355
5.6275	95.5996	99.0549	205.346
5.63	95.6195	99.044	205.336
5.6325	95.6394	99.0332	205.327
5.635	95.6592	99.0224	205.318
5.6375	95.6791	99.0117	205.309
5.64	95.6988	99.0011	205.3
5.6425	95.7186	98.9904	205.291
5.645	95.7383	98.9799	205.282
5.6475	95.758	98.9693	205.273
5.65	95.7776	98.9589	205.263
5.6525	95.7972	98.9484	205.254
5.655	95.8168	98.9381	205.245
5.6575	95.8364	98.9278	205.236
5.66	95.8559	98.9175	205.227
5.6625	95.8753	98.9073	205.217
5.665	95.8948	98.8971	205.208
5.6675	95.9142	98.887	205.199
5.67	95.9335	98.8769	205.19
5.6725	95.9529	98.8669	205.18
5.675	95.9722	98.8569	205.171
5.6775	95.9914	98.8469	205.162
5.68	96.0106	98.8371	205.152
5.6825	96.0298	98.8272	205.143
5.685	96.049	98.8174	205.134
5.6875	96.0681	98.8077	205.124
5.69	96.0872	98.798	205.115
5.6925	96.1062	98.7884	205.105
5.695	96.1252	98.7788	205.096
5.6975	96.1442	98.7692	205.087
5.7	96.1631	98.7597	205.077
5.7025	96.182	98.7503	205.068
5.705	96.2009	98.7409	205.058
5.7075	96.2197	98.7315	205.049
5.71	96.2385	98.7222	205.039
5.7125	96.2573	98.713	205.03
5.715	96.276	98.7038	205.02
5.7175	96.2947	98.6946	205.011
5.72	96.3134	98.6855	205.001
5.7225	96.332	98.6764	204.992
5.725	96.3505	98.6674	204.982
5.7275	96.3691	98.6584	204.973
5.73	96.3876	98.6495	204.963
5.7325	96.4061	98.6406	204.953
5.735	96.4245	98.6317	204.944
5.7375	96.4429	98.6229	204.934
5.74	96.4613	98.6142	204.925
5.7425	96.4796	98.6055	204.915
5.745	96.4979	98.5968	204.905
5.7475	96.5161	98.5882	204.896
5.75	96.5344	98.5797	204.886
5.7525	96.5525	98.5712	204.876
5.755	96.5707	98.5627	204.867
5.7575	96.5888	98.5543	204.857
5.76	96.6069	98.5459	204.847
5.7625	96.6249	98.5375	204.838
5.765	96.6429	98.5292	204.828
5.7675	96.6609	98.521	204.818
5.77	96.6788	98.5128	204.808
5.7725	96.6967	98.5046	204.799
5.775	96.7145	98.4965	204.789
5.7775	96.7323	98.4885	204.779
5.78	96.7501	98.4804	204.769
5.7825	96.7679	98.4725	204.76
5.785	96.7856	98.4645	204.75
5.7875	96.8032	98.4566	204.74
5.79	96.8209	98.4488	204.73
5.7925	96.8385	98.441	204.721
5.795	96.856	98.4332	204.711
5.7975	96.8736	98.4255	204.701
5.8	96.891	98.4178	204.691
5.8025	96.9085	98.4102	204.681
5.805	96.9259	98.4026	204.671
5.8075	96.9433	98.3951	204.662
5.81	96.9606	98.3876	204.652
5.8125	96.9779	98.3801	204.642
5.815	96.9952	98.3727	204.632
5.8175	97.0124	98.3654	204.622
5.82	97.0296	98.358	204.612
5.8225	97.0468	98.3507	204.602
5.825	97.0639	98.3435	204.593
5.8275	97.081	98.3363	204.583
5.83	97.098	98.3292	204.573
5.8325	97.115	98.322	204.563
5.835	97.132	98.315	204.553
5.8375	97.1489	98.3079	204.543
5.84	97.1658	98.301	204.533
5.8425	97.1827	98.294	204.523
5.845	97.1995	98.2871	204.513
5.8475	97.2163	98.2802	204.503
5.85	97.2331	98.2734	204.494
5.8525	97.2498	98.2667	204.484
5.855	97.2664	98.2599	204.474
5.8575	97.2831	98.2532	204.464
5.86	97.2997	98.2466	204.454
5.8625	97.3163	98.24	204.444
5.865	97.3328	98.2334	204.434
5.8675	97.3493	98.2269	204.424
5.87	97.3657	98.2204	204.414
5.8725	97.3821	98.2139	204.404
5.875	97.3985	98.2075	204.394
5.8775	97.4149	98.2011	204.384
5.88	97.4312	98.1948	204.374
5.8825	97.4474	98.1885	204.364
5.885	97.4637	98.1823	204.354
5.8875	97.4799	98.1761	204.344
5.89	97.496	98.1699	204.334
5.8925	97.5121	98.1638	204.324
5.895	97.5282	98.1577	204.314
5.8975	97.5443	98.1517	204.304
5.9	97.5603	98.1457	204.294
5.9025	97.5762	98.1397	204.284
5.905	97.5922	98.1338	204.274
5.9075	97.6081	98.1279	204.264
5.91	97.6239	98.122	204.254
5.9125	97.6398	98.1162	204.244
5.915	97.6555	98.1104	204.234
5.9175	97.6713	98.1047	204.224
5.92	97.687	98.099	204.214
5.9225	97.7027	98.0934	204.204
5.925	97.7183	98.0878	204.194
5.9275	97.7339	98.0822	204.184
5.93	97.7495	98.0766	204.174
5.9325	97.765	98.0711	204.164
5.935	97.7805	98.0657	204.154
5.9375	97.7959	98.0603	204.144
5.94	97.8114	98.0549	204.134
5.9425	97.8267	98.0495	204.124
5.945	97.8421	98.0442	204.114
5.9475	97.8574	98.039	204.104
5.95	97.8726	98.0337	204.094
5.9525	97.8879	98.0285	204.084
5.955	97.9031	98.0234	204.074
5.9575	97.9182	98.0182	204.064
5.96	97.9333	98.0132	204.054
5.9625	97.9484	98.0081	204.043
5.965	97.9634	98.0031	204.033
5.9675	97.9785	97.9981	204.023
5.97	97.9934	97.9932	204.013
5.9725	98.0083	97.9883	204.003
5.975	98.0232	97.9834	203.993
5.9775	98.0381	97.9786	203.983
5.98	98.0529	97.9738	203.973
5.9825	98.0677	97.9691	203.963
5.985	98.0824	97.9644	203.953
5.9875	98.0972	97.9597	203.943
5.99	98.1118	97.955	203.933
5.9925	98.1265	97.9504	203.923
5.995	98.1411	97.9459	203.913
5.9975	98.1556	97.9413	203.903
6	98.1701	97.9368	203.893
6.0025	98.1846	97.9324	203.883
6.005	98.1991	97.928	203.873
6.0075	98.2135	97.9236	203.863
6.01	98.2279	97.9192	203.853
6.0125	98.2422	97.9149	203.843
6.015	98.2565	97.9106	203.833
6.0175	98.2708	97.9063	203.823
6.02	98.285	97.9021	203.813
6.0225	98.2992	97.898	203.803
6.025	98.3133	97.8938	203.793
6.0275	98.3275	97.8897	203.783
6.03	98.3415	97.8856	203.773
6.0325	98.3556	97.8816	203.763
6.035	98.3696	97.8776	203.753
6.0375	98.3835	97.8736	203.743
6.04	98.3975	97.8697	203.733
6.0425	98.4114	97.8658	203.723
6.045	98.4252	97.8619	203.713
6.0475	98.439	97.8581	203.703
6.05	98.4528	97.8543	203.693
6.0525	98.4666	97.8505	203.683
6.055	98.4803	97.8468	203.673
6.0575	98.494	97.843	203.663
6.06	98.5076	97.8394	203.653
6.0625	98.5212	97.8357	203.643
6.065	98.5348	97.8321	203.633
6.0675	98.5483	97.8286	203.623
6.07	98.5618	97.825	203.613
6.0725	98.5752	97.8215	203.603
6.075	98.5886	97.8181	203.593
6.0775	98.602	97.8146	203.583
6.08	98.6154	97.8112	203.573
6.0825	98.6287	97.8079	203.563
6.085	98.6419	97.8045	203.554
6.0875	98.6552	97.8012	203.544
6.09	98.6684	97.798	203.534
6.0925	98.6815	97.7947	203.524
6.095	98.6947	97.7915	203.514
6.0975	98.7077	97.7883	203.504
6.1	98.7208	97.7852	203.494
6.1025	98.7338	97.7821	203.484
6.105	98.7468	97.779	203.474
6.1075	98.7597	97.776	203.464
6.11	98.7726	97.7729	203.454
6.1125	98.7855	97.77	203.445
6.115	98.7983	97.767	203.435
6.1175	98.8111	97.7641	203.425
6.12	98.8239	97.7612	203.415
6.1225	98.8366	97.7583	203.405
6.125	98.8493	97.7555	203.395
6.1275	98.8619	97.7527	203.385
6.13	98.8746	97.7499	203.376
6.1325	98.8871	97.7472	203.366
6.135	98.8997	97.7445	203.356
6.1375	98.9122	97.7418	203.346
6.14	98.9246	97.7392	203.336
6.1425	98.9371	97.7366	203.326
6.145	98.9495	97.734	203.317
6.1475	98.9618	97.7314	203.307
6.15	98.9741	97.7289	203.297
6.1525	98.9864	97.7264	203.287
6.155	98.9987	97.724	203.277
6.1575	99.0109	97.7215	203.268
6.16	99.0231	97.7191	203.258
6.1625	99.0352	97.7168	203.248
6.165	99.0473	97.7144	203.238
6.1675	99.0594	97.7121	203.228
6.17	99.0714	97.7098	203.219
6.1725	99.0834	97.7076	203.209
6.175	99.0954	97.7053	203.199
6.1775	99.1073	97.7032	203.19
6.18	99.1192	97.701	203.18
6.1825	99.1311	97.6988	203.17
6.185	99.1429	97.6967	203.16
6.1875	99.1547	97.6947	203.151
6.19	99.1664	97.6926	203.141
6.1925	99.1781	97.6906	203.131
6.195	99.1898	97.6886	203.122
6.1975	99.2015	97.6866	203.112
6.2	99.2131	97.6847	203.102
6.2025	99.2246	97.6828	203.093
6.205	99.2362	97.6809	203.083
6.2075	99.2477	97.6791	203.073
6.21	99.2591	97.6772	203.064
6.2125	99.2706	97.6754	203.054
6.215	99.282	97.6737	203.044
6.2175	99.2933	97.6719	203.035
6.22	99.3046	97.6702	203.025
6.2225	99.3159	97.6685	203.016
6.225	99.3272	97.6669	203.006
6.2275	99.3384	97.6653	202.996
6.23	99.3496	97.6637	202.987
6.2325	99.3607	97.6621	202.977
6.235	99.3718	97.6605	202.968
6.2375	99.3829	97.659	202.958
6.24	99.3939	97.6575	202.949
6.2425	99.4049	97.6561	202.939
6.245	99.4159	97.6546	202.929
6.2475	99.4268	97.6532	202.92
6.25	99.4377	97.6518	202.91
6.2525	99.4486	97.6505	202.901
6.255	99.4594	97.6491	202.891
6.2575	99.4702	97.6478	202.882
6.26	99.481	97.6465	202.872
6.2625	99.4917	97.6453	202.863
6.265	99.5024	97.6441	202.854
6.2675	99.513	97.6429	202.844
6.27	99.5237	97.6417	202.835
6.2725	99.5343	97.6405	202.825
6.275	99.5448	97.6394	202.816
6.2775	99.5553	97.6383	202.806
6.28	99.5658	97.6372	202.797
6.2825	99.5762	97.6362	202.788
6.285	99.5867	97.6352	202.778
6.2875	99.597	97.6342	202.769
6.29	99.6074	97.6332	202.759
6.2925	99.6177	97.6322	202.75
6.295	99.628	97.6313	202.741
6.2975	99.6382	97.6304	202.731
6.3	99.6484	97.6296	202.722
6.3025	99.6586	97.6287	202.713
6.305	99.6687	97.6279	202.703
6.3075	99.6788	97.6271	202.694
6.31	99.6889	97.6263	202.685
6.3125	99.6989	97.6256	202.676
6.315	99.7089	97.6249	202.666
6.3175	99.7189	97.6242	202.657
6.32	99.7288	97.6235	202.648
6.3225	99.7387	97.6228	202.638
6.325	99.7485	97.6222	202.629
6.3275	99.7584	97.6216	202.62
6.33	99.7682	97.621	202.611
6.3325	99.7779	97.6205	202.602
6.335	99.7877	97.6199	202.592
6.3375	99.7973	97.6194	202.583
6.34	99.807	97.619	202.574
6.3425	99.8166	97.6185	202.565
6.345	99.8262	97.6181	202.556
6.3475	99.8358	97.6176	202.547
6.35	99.8453	97.6173	202.537
6.3525	99.8548	97.6169	202.528
6.355	99.8642	97.6166	202.519
6.3575	99.8737	97.6162	202.51
6.36	99.8831	97.6159	202.501
6.3625	99.8924	97.6157	202.492
6.365	99.9017	97.6154	202.483
6.3675	99.911	97.6152	202.474
6.37	99.9203	97.615	202.465
6.3725	99.9295	97.6148	202.456
6.375	99.9387	97.6146	202.447
6.3775	99.9478	97.6145	202.438
6.38	99.957	97.6144	202.429
6.3825	99.966	97.6143	202.42
6.385	99.9751	97.6142	202.411
6.3875	99.9841	97.6142	202.402
6.39	99.9931	97.6141	202.393
6.3925	100.002	97.6141	202.384
6.395	100.011	97.6141	202.375
6.3975	100.02	97.6142	202.366
6.4	100.029	97.6142	202.357
6.4025	100.038	97.6143	202.348
6.405	100.046	97.6144	202.339
6.4075	100.055	97.6145	202.33
6.41	100.064	97.6147	202.321
6.4125	100.073	97.6149	202.313
6.415	100.081	97.615	202.304
6.4175	100.09	97.6153	202.295
6.42	100.098	97.6155	202.286
6.4225	100.107	97.6157	202.277
6.425	100.116	97.616	202.268
6.4275	100.124	97.6163	202.26
6.43	100.132	97.6166	202.251
6.4325	100.141	97.6169	202.242
6.435	100.149	97.6173	202.233
6.4375	100.158	97.6177	202.225
6.44	100.166	97.6181	202.216
6.4425	100.174	97.6185	202.207
6.445	100.183	97.6189	202.198
6.4475	100.191	97.6194	202.19
6.45	100.199	97.6199	202.181
6.4525	100.207	97.6203	202.172
6.455	100.215	97.6209	202.164
6.4575	100.223	97.6214	202.155
6.46	100.232	97.622	202.147
6.4625	100.24	97.6225	202.138
6.465	100.248	97.6231	202.129
6.4675	100.256	97.6237	202.121
6.47	100.264	97.6244	202.112
6.4725	100.271	97.625	202.104
6.475	100.279	97.6257	202.095
6.4775	100.287	97.6264	202.086
6.48	100.295	97.6271	202.078
6.4825	100.303	97.6278	202.069
6.485	100.311	97.6286	202.061
6.4875	100.318	97.6293	202.052
6.49	100.326	97.6301	202.044
6.4925	100.334	97.6309	202.035
6.495	100.341	97.6318	202.027
6.4975	100.349	97.6326	202.018
6.5	100.356	97.6335	202.01
6.5025	100.364	97.6343	202.002
6.505	100.372	97.6352	201.993
6.5075	100.379	97.6362	201.985
6.51	100.386	97.6371	201.976
6.5125	100.394	97.638	201.968
6.515	100.401	97.639	201.96
6.5175	100.409	97.64	201.951
6.52	100.416	97.641	201.943
6.5225	100.423	97.642	201.935
6.525	100.431	97.6431	201.926
6.5275	100.438	97.6441	201.918
6.53	100.445	97.6452	201.91
6.5325	100.452	97.6463	201.902
6.535	100.459	97.6474	201.893
6.5375	100.466	97.6485	201.885
6.54	100.473	97.6497	201.877
6.5425	100.481	97.6509	201.869
6.545	100.488	97.652	201.86
6.5475	100.495	97.6532	201.852
6.55	100.501	97.6545	201.844
6.5525	100.508	97.6557	201.836
6.555	100.515	97.6569	201.828
6.5575	100.522	97.6582	201.82
6.56	100.529	97.6595	201.811
6.5625	100.536	97.6608	201.803
6.565	100.543	97.6621	201.795
6.5675	100.549	97.6634	201.787
6.57	100.556	97.6648	201.779
6.5725	100.563	97.6662	201.771
6.575	100.569	97.6675	201.763
6.5775	100.576	97.6689	201.755
6.58	100.583	97.6704	201.747
6.5825	100.589	97.6718	201.739
6.585	100.596	97.6732	201.731
6.5875	100.602	97.6747	201.723
6.59	100.609	97.6762	201.715
6.5925	100.615	97.6777	201.707
6.595	100.622	97.6792	201.699
6.5975	100.628	97.6807	201.691
6.6	100.634	97.6822	201.683
6.6025	100.641	97.6838	201.675
6.605	100.647	97.6854	201.668
6.6075	100.653	97.687	201.66
6.61	100.66	97.6886	201.652
6.6125	100.666	97.6902	201.644
6.615	100.672	97.6918	201.636
6.6175	100.678	97.6935	201.628
6.62	100.684	97.6951	201.621
6.6225	100.69	97.6968	201.613
6.625	100.696	97.6985	201.605
6.6275	100.702	97.7002	201.597
6.63	100.709	97.7019	201.59
6.6325	100.714	97.7037	201.582
6.635	100.72	97.7054	201.574
6.6375	100.726	97.7072	201.566
6.64	100.732	97.709	201.559
6.6425	100.738	97.7108	201.551
6.645	100.744	97.7126	201.543
6.6475	100.75	97.7144	201.536
6.65	100.756	97.7162	201.528
6.6525	100.761	97.7181	201.521
6.655	100.767	97.72	201.513
6.6575	100.773	97.7218	201.505
6.66	100.778	97.7237	201.498
6.6625	100.784	97.7256	201.49
6.665	100.79	97.7276	201.483
6.6675	100.795	97.7295	201.475
6.67	100.801	97.7315	201.468
6.6725	100.806	97.7334	201.46
6.675	100.812	97.7354	201.453
6.6775	100.817	97.7374	201.445
6.68	100.823	97.7394	201.438
6.6825	100.828	97.7414	201.43
6.685	100.834	97.7434	201.423
6.6875	100.839	97.7455	201.415
6.69	100.844	97.7475	201.408
6.6925	100.85	97.7496	201.401
6.695	100.855	97.7517	201.393
6.6975	100.86	97.7538	201.386
6.7	100.865	97.7559	201.379
6.7025	100.871	97.758	201.371
6.705	100.876	97.7602	201.364
6.7075	100.881	97.7623	201.357
6.71	100.886	97.7645	201.349
6.7125	100.891	97.7666	201.342
6.715	100.896	97.7688	201.335
6.7175	100.901	97.771	201.328
6.72	100.906	97.7732	201.32
6.7225	100.911	97.7754	201.313
6.725	100.916	97.7777	201.306
6.7275	100.921	97.7799	201.299
6.73	100.926	97.7822	201.292
6.7325	100.931	97.7844	201.285
6.735	100.936	97.7867	201.277
6.7375	100.941	97.789	201.27
6.74	100.946	97.7913	201.263
6.7425	100.95	97.7936	201.256
6.745	100.955	97.796	201.249
6.7475	100.96	97.7983	201.242
6.75	100.964	97.8007	201.235
6.7525	100.969	97.803	201.228
6.755	100.974	97.8054	201.221
6.7575	100.978	97.8078	201.214
6.76	100.983	97.8102	201.207
6.7625	100.988	97.8126	201.2
6.765	100.992	97.815	201.193
6.7675	100.997	97.8175	201.186
6.77	101.001	97.8199	201.179
6.7725	101.006	97.8224	201.172
6.775	101.01	97.8248	201.165
6.7775	101.014	97.8273	201.158
6.78	101.019	97.8298	201.151
6.7825	101.023	97.8323	201.145
6.785	101.028	97.8348	201.138
6.7875	101.032	97.8373	201.131
6.79	101.036	97.8398	201.124
6.7925	101.04	97.8424	201.117
6.795	101.045	97.8449	201.11
6.7975	101.049	97.8475	201.104
6.8	101.053	97.8501	201.097
6.8025	101.057	97.8526	201.09
6.805	101.061	97.8552	201.084
6.8075	101.065	97.8578	201.077
6.81	101.069	97.8604	201.07
6.8125	101.074	97.8631	201.063
6.815	101.078	97.8657	201.057
6.8175	101.082	97.8683	201.05
6.82	101.086	97.871	201.043
6.8225	101.089	97.8736	201.037
6.825	101.093	97.8763	201.03
6.8275	101.097	97.879	201.024
6.83	101.101	97.8817	201.017
6.8325	101.105	97.8844	201.011
6.835	101.109	97.8871	201.004
6.8375	101.113	97.8898	200.997
6.84	101.117	97.8925	200.991
6.8425	101.12	97.8953	200.984
6.845	101.124	97.898	200.978
6.8475	101.128	97.9008	200.971
6.85	101.131	97.9035	200.965
6.8525	101.135	97.9063	200.959
6.855	101.139	97.9091	200.952
6.8575	101.142	97.9119	200.946
6.86	101.146	97.9147	200.939
6.8625	101.15	97.9175	200.933
6.865	101.153	97.9203	200.927
6.8675	101.157	97.9231	200.92
6.87	101.16	97.926	200.914
6.8725	101.164	97.9288	200.908
6.875	101.167	97.9317	200.901
6.8775	101.17	97.9345	200.895
6.88	101.174	97.9374	200.889
6.8825	101.177	97.9403	200.882
6.885	101.181	97.9432	200.876
6.8875	101.184	97.9461	200.87
6.89	101.187	97.949	200.864
6.8925	101.191	97.9519	200.858
6.895	101.194	97.9548	200.851
6.8975	101.197	97.9577	200.845
6.9	101.2	97.9607	200.839
6.9025	101.203	97.9636	200.833
6.905	101.207	97.9666	200.827
6.9075	101.21	97.9695	200.821
6.91	101.213	97.9725	200.815
6.9125	101.216	97.9755	200.809
6.915	101.219	97.9784	200.802
6.9175	101.222	97.9814	200.796
6.92	101.225	97.9844	200.79
6.9225	101.228	97.9874	200.784
6.925	101.231	97.9905	200.778
6.9275	101.234	97.9935	200.772
6.93	101.237	97.9965	200.766
6.9325	101.24	97.9995	200.76
6.935	101.243	98.0026	200.754
6.9375	101.246	98.0056	200.749
6.94	101.249	98.0087	200.743
6.9425	101.252	98.0117	200.737
6.945	101.254	98.0148	200.731
6.9475	101.257	98.0179	200.725
6.95	101.26	98.021	200.719
6.9525	101.263	98.0241	200.713
6.955	101.265	98.0272	200.707
6.9575	101.268	98.0303	200.702
6.96	101.271	98.0334	200.696
6.9625	101.273	98.0365	200.69
6.965	101.276	98.0396	200.684
6.9675	101.279	98.0427	200.679
6.97	101.281	98.0459	200.673
6.9725	101.284	98.049	200.667
6.975	101.286	98.0522	200.661
6.9775	101.289	98.0553	200.656
6.98	101.291	98.0585	200.65
6.9825	101.294	98.0617	200.644
6.985	101.296	98.0648	200.639
6.9875	101.299	98.068	200.633
6.99	101.301	98.0712	200.628
6.9925	101.304	98.0744	200.622
6.995	101.306	98.0776	200.616
6.9975	101.308	98.0808	200.611
7	101.311	98.084	200.605
7.0025	101.313	98.0872	200.6
7.005	101.315	98.0905	200.594
7.0075	101.318	98.0937	200.589
7.01	101.32	98.0969	200.583
7.0125	101.322	98.1002	200.578
7.015	101.324	98.1034	200.572
7.0175	101.327	98.1067	200.567
7.02	101.329	98.1099	200.561
7.0225	101.331	98.1132	200.556
7.025	101.333	98.1164	200.551
7.0275	101.335	98.1197	200.545
7.03	101.337	98.123	200.54
7.0325	101.339	98.1263	200.534
7.035	101.341	98.1296	200.529
7.0375	101.343	98.1329	200.524
7.04	101.345	98.1362	200.518
7.0425	101.347	98.1395	200.513
7.045	101.349	98.1428	200.508
7.0475	101.351	98.1461	200.503
7.05	101.353	98.1494	200.497
7.0525	101.355	98.1527	200.492
7.055	101.357	98.1561	200.487
7.0575	101.359	98.1594	200.482
7.06	101.361	98.1627	200.476
7.0625	101.363	98.1661	200.471
7.065	101.365	98.1694	200.466
7.0675	101.366	98.1728	200.461
7.07	101.368	98.1761	200.456
7.0725	101.37	98.1795	200.451
7.075	101.372	98.1828	200.446
7.0775	101.373	98.1862	200.44
7.08	101.375	98.1896	200.435
7.0825	101.377	98.193	200.43
7.085	101.378	98.1963	200.425
7.0875	101.38	98.1997	200.42
7.09	101.382	98.2031	200.415
7.0925	101.383	98.2065	200.41
7.095	101.385	98.2099	200.405
7.0975	101.386	98.2133	200.4
7.1	101.388	98.2167	200.395
7.1025	101.39	98.2201	200.39
7.105	101.391	98.2235	200.385
7.1075	101.393	98.227	200.38
7.11	101.394	98.2304	200.376
7.1125	101.395	98.2338	200.371
7.115	101.397	98.2372	200.366
7.1175	101.398	98.2407	200.361
7.12	101.4	98.2441	200.356
7.1225	101.401	98.2475	200.351
7.125	101.403	98.251	200.346
7.1275	101.404	98.2544	200.342
7.13	101.405	98.2579	200.337
7.1325	101.407	98.2613	200.332
7.135	101.408	98.2648	200.327
7.1375	101.409	98.2683	200.323
7.14	101.41	98.2717	200.318
7.1425	101.412	98.2752	200.313
7.145	101.413	98.2787	200.309
7.1475	101.414	98.2821	200.304
7.15	101.415	98.2856	200.299
7.1525	101.416	98.2891	200.295
7.155	101.418	98.2926	200.29
7.1575	101.419	98.2961	200.285
7.16	101.42	98.2995	200.281
7.1625	101.421	98.303	200.276
7.165	101.422	98.3065	200.271
7.1675	101.423	98.31	200.267
7.17	101.424	98.3135	200.262
7.1725	101.425	98.317	200.258
7.175	101.426	98.3205	200.253
7.1775	101.427	98.324	200.249
7.18	101.428	98.3275	200.244
7.1825	101.429	98.3311	200.24
7.185	101.43	98.3346	200.235
7.1875	101.431	98.3381	200.231
7.19	101.432	98.3416	200.226
7.1925	101.433	98.3451	200.222
7.195	101.434	98.3487	200.218
7.1975	101.435	98.3522	200.213
7.2	101.435	98.3557	200.209
7.2025	101.436	98.3592	200.204
7.205	101.437	98.3628	200.2
7.2075	101.438	98.3663	200.196
7.21	101.439	98.3698	200.191
7.2125	101.439	98.3734	200.187
7.215	101.44	98.3769	200.183
7.2175	101.441	98.3805	200.179
7.22	101.442	98.384	200.174
7.2225	101.442	98.3876	200.17
7.225	101.443	98.3911	200.166
7.2275	101.444	98.3947	200.162
7.23	101.444	98.3982	200.157
7.2325	101.445	98.4018	200.153
7.235	101.446	98.4053	200.149
7.2375	101.446	98.4089	200.145
7.24	101.447	98.4124	200.141
7.2425	101.447	98.416	200.137
7.245	101.448	98.4196	200.132
7.2475	101.449	98.4231	200.128
7.25	101.449	98.4267	200.124
7.2525	101.45	98.4303	200.12
7.255	101.45	98.4338	200.116
7.2575	101.451	98.4374	200.112
7.26	101.451	98.441	200.108
7.2625	101.451	98.4445	200.104
7.265	101.452	98.4481	200.1
7.2675	101.452	98.4517	200.096
7.27	101.453	98.4553	200.092
7.2725	101.453	98.4588	200.088
7.275	101.454	98.4624	200.084
7.2775	101.454	98.466	200.08
7.28	101.454	98.4696	200.076
7.2825	101.455	98.4731	200.072
7.285	101.455	98.4767	200.068
7.2875	101.455	98.4803	200.064
7.29	101.455	98.4839	200.061
7.2925	101.456	98.4875	200.057
7.295	101.456	98.4911	200.053
7.2975	101.456	98.4946	200.049
7.3	101.456	98.4982	200.045
7.3025	101.457	98.5018	200.041
7.305	101.457	98.5054	200.038
7.3075	101.457	98.509	200.034
7.31	101.457	98.5126	200.03
7.3125	101.457	98.5162	200.026
7.315	101.458	98.5198	200.023
7.3175	101.458	98.5234	200.019
7.32	101.458	98.5269	200.015
7.3225	101.458	98.5305	200.012
7.325	101.458	98.5341	200.008
7.3275	101.458	98.5377	200.004
7.33	101.458	98.5413	200.001
7.3325	101.458	98.5449	199.997
7.335	101.458	98.5485	199.993
7.3375	101.458	98.5521	199.99
7.34	101.458	98.5557	199.986
7.3425	101.458	98.5593	199.982
7.345	101.458	98.5629	199.979
7.3475	101.458	98.5665	199.975
7.35	101.458	98.5701	199.972
7.3525	101.458	98.5736	199.968
7.355	101.458	98.5772	199.965
7.3575	101.458	98.5808	199.961
7.36	101.458	98.5844	199.958
7.3625	101.458	98.588	199.954
7.365	101.458	98.5916	199.951
7.3675	101.457	98.5952	199.947
7.37	101.457	98.5988	199.944
7.3725	101.457	98.6024	199.94
7.375	101.457	98.606	199.937
7.3775	101.457	98.6096	199.934
7.38	101.457	98.6132	199.93
7.3825	101.456	98.6168	199.927
7.385	101.456	98.6203	199.924
7.3875	101.456	98.6239	199.92
7.39	101.456	98.6275	199.917
7.3925	101.455	98.6311	199.914
7.395	101.455	98.6347	199.91
7.3975	101.455	98.6383	199.907
7.4	101.454	98.6419	199.904
7.4025	101.454	98.6455	199.9
7.405	101.454	98.649	199.897
7.4075	101.453	98.6526	199.894
7.41	101.453	98.6562	199.891
7.4125	101.453	98.6598	199.887
7.415	101.452	98.6634	199.884
7.4175	101.452	98.667	199.881
7.42	101.452	98.6705	199.878
7.4225	101.451	98.6741	199.875
7.425	101.451	98.6777	199.872
7.4275	101.45	98.6813	199.868
7.43	101.45	98.6849	199.865
7.4325	101.449	98.6884	199.862
7.435	101.449	98.692	199.859
7.4375	101.448	98.6956	199.856
7.44	101.448	98.6992	199.853
7.4425	101.447	98.7027	199.85
7.445	101.447	98.7063	199.847
7.4475	101.446	98.7099	199.844
7.45	101.446	98.7134	199.841
7.4525	101.445	98.717	199.838
7.455	101.445	98.7206	199.835
7.4575	101.444	98.7241	199.832
7.46	101.444	98.7277	199.829
7.4625	101.443	98.7313	199.826
7.465	101.442	98.7348	199.823
7.4675	101.442	98.7384	199.82
7.47	101.441	98.7419	199.817
7.4725	101.44	98.7455	199.814
7.475	101.44	98.7491	199.811
7.4775	101.439	98.7526	199.808
7.48	101.438	98.7562	199.805
7.4825	101.438	98.7597	199.803
7.485	101.437	98.7633	199.8
7.4875	101.436	98.7668	199.797
7.49	101.436	98.7704	199.794
7.4925	101.435	98.7739	199.791
7.495	101.434	98.7774	199.788
7.4975	101.433	98.781	199.786
7.5	101.433	98.7845	199.783
7.5025	101.432	98.7881	199.78
7.505	101.431	98.7916	199.777
7.5075	101.43	98.7951	199.775
7.51	101.429	98.7987	199.772
7.5125	101.429	98.8022	199.769
7.515	101.428	98.8057	199.767
7.5175	101.427	98.8092	199.764
7.52	101.426	98.8128	199.761
7.5225	101.425	98.8163	199.758
7.525	101.424	98.8198	199.756
7.5275	101.423	98.8233	199.753
7.53	101.423	98.8268	199.751
7.5325	101.422	98.8304	199.748
7.535	101.421	98.8339	199.745
7.5375	101.42	98.8374	199.743
7.54	101.419	98.8409	199.74
7.5425	101.418	98.8444	199.738
7.545	101.417	98.8479	199.735
7.5475	101.416	98.8514	199.733
7.55	101.415	98.8549	199.73
7.5525	101.414	98.8584	199.727
7.555	101.413	98.8619	199.725
7.5575	101.412	98.8654	199.722
7.56	101.411	98.8689	199.72
7.5625	101.41	98.8723	199.718
7.565	101.409	98.8758	199.715
7.5675	101.408	98.8793	199.713
7.57	101.407	98.8828	199.71
7.5725	101.406	98.8863	199.708
7.575	101.405	98.8897	199.705
7.5775	101.404	98.8932	199.703
7.58	101.403	98.8967	199.701
7.5825	101.402	98.9002	199.698
7.585	101.401	98.9036	199.696
7.5875	101.399	98.9071	199.693
7.59	101.398	98.9105	199.691
7.5925	101.397	98.914	199.689
7.595	101.396	98.9175	199.686
7.5975	101.395	98.9209	199.684
7.6	101.394	98.9243	199.682
7.6025	101.393	98.9278	199.68
7.605	101.391	98.9312	199.677
7.6075	101.39	98.9347	199.675
7.61	101.389	98.9381	199.673
7.6125	101.388	98.9416	199.671
7.615	101.387	98.945	199.668
7.6175	101.386	98.9484	199.666
7.62	101.384	98.9518	199.664
7.6225	101.383	98.9553	199.662
7.625	101.382	98.9587	199.659
7.6275	101.381	98.9621	199.657
7.63	101.379	98.9655	199.655
7.6325	101.378	98.9689	199.653
7.635	101.377	98.9723	199.651
7.6375	101.376	98.9757	199.649
7.64	101.374	98.9791	199.647
7.6425	101.373	98.9825	199.645
7.645	101.372	98.9859	199.642
7.6475	101.37	98.9893	199.64
7.65	101.369	98.9927	199.638
7.6525	101.368	98.9961	199.636
7.655	101.366	98.9995	199.634
7.6575	101.365	99.0029	199.632
7.66	101.364	99.0062	199.63
7.6625	101.362	99.0096	199.628
7.665	101.361	99.013	199.626
7.6675	101.36	99.0164	199.624
7.67	101.358	99.0197	199.622
7.6725	101.357	99.0231	199.62
7.675	101.355	99.0264	199.618
7.6775	101.354	99.0298	199.616
7.68	101.353	99.0331	199.614
7.6825	101.351	99.0365	199.612
7.685	101.35	99.0398	199.61
7.6875	101.348	99.0432	199.609
7.69	101.347	99.0465	199.607
7.6925	101.345	99.0498	199.605
7.695	101.344	99.0532	199.603
7.6975	101.343	99.0565	199.601
7.7	101.341	99.0598	199.599
7.7025	101.34	99.0631	199.597
7.705	101.338	99.0665	199.595
7.7075	101.337	99.0698	199.594
7.71	101.335	99.0731	199.592
7.7125	101.334	99.0764	199.59
7.715	101.332	99.0797	199.588
7.7175	101.331	99.083	199.586
7.72	101.329	99.0863	199.585
7.7225	101.328	99.0896	199.583
7.725	101.326	99.0929	199.581
7.7275	101.324	99.0961	199.579
7.73	101.323	99.0994	199.578
7.7325	101.321	99.1027	199.576
7.735	101.32	99.106	199.574
7.7375	101.318	99.1092	199.573
7.74	101.317	99.1125	199.571
7.7425	101.315	99.1158	199.569
7.745	101.313	99.119	199.568
7.7475	101.312	99.1223	199.566
7.75	101.31	99.1255	199.564
7.7525	101.309	99.1288	199.563
7.755	101.307	99.132	199.561
7.7575	101.305	99.1352	199.559
7.76	101.304	99.1385	199.558
7.7625	101.302	99.1417	199.556
7.765	101.301	99.1449	199.555
7.7675	101.299	99.1481	199.553
7.77	101.297	99.1514	199.551
7.7725	101.296	99.1546	199.55
7.775	101.294	99.1578	199.548
7.7775	101.292	99.161	199.547
7.78	101.291	99.1642	199.545
7.7825	101.289	99.1674	199.544
7.785	101.287	99.1706	199.542
7.7875	101.285	99.1738	199.541
7.79	101.284	99.177	199.539
7.7925	101.282	99.1801	199.538
7.795	101.28	99.1833	199.536
7.7975	101.279	99.1865	199.535
7.8	101.277	99.1897	199.533
7.8025	101.275	99.1928	199.532
7.805	101.273	99.196	199.531
7.8075	101.272	99.1991	199.529
7.81	101.27	99.2023	199.528
7.8125	101.268	99.2054	199.526
7.815	101.266	99.2086	199.525
7.8175	101.265	99.2117	199.524
7.82	101.263	99.2149	199.522
7.8225	101.261	99.218	199.521
7.825	101.259	99.2211	199.519
7.8275	101.258	99.2242	199.518
7.83	101.256	99.2273	199.517
7.8325	101.254	99.2305	199.515
7.835	101.252	99.2336	199.514
7.8375	101.25	99.2367	199.513
7.84	101.249	99.2398	199.512
7.8425	101.247	99.2429	199.51
7.845	101.245	99.246	199.509
7.8475	101.243	99.249	199.508
7.85	101.241	99.2521	199.506
7.8525	101.24	99.2552	199.505
7.855	101.238	99.2583	199.504
7.8575	101.236	99.2614	199.503
7.86	101.234	99.2644	199.502
7.8625	101.232	99.2675	199.5
7.865	101.23	99.2705	199.499
7.8675	101.228	99.2736	199.498
7.87	101.227	99.2766	199.497
7.8725	101.225	99.2797	199.496
7.875	101.223	99.2827	199.494
7.8775	101.221	99.2857	199.493
7.88	101.219	99.2888	199.492
7.8825	101.217	99.2918	199.491
7.885	101.215	99.2948	199.49
7.8875	101.213	99.2978	199.489
7.89	101.212	99.3008	199.488
7.8925	101.21	99.3038	199.486
7.895	101.208	99.3068	199.485
7.8975	101.206	99.3098	199.484
7.9	101.204	99.3128	199.483
7.9025	101.202	99.3158	199.482
7.905	101.2	99.3188	199.481
7.9075	101.198	99.3218	199.48
7.91	101.196	99.3248	199.479
7.9125	101.194	99.3277	199.478
7.915	101.192	99.3307	199.477
7.9175	101.19	99.3336	199.476
7.92	101.188	99.3366	199.475
7.9225	101.187	99.3395	199.474
7.925	101.185	99.3425	199.473
7.9275	101.183	99.3454	199.472
7.93	101.181	99.3484	199.471
7.9325	101.179	99.3513	199.47
7.935	101.177	99.3542	199.469
7.9375	101.175	99.3571	199.468
7.94	101.173	99.3601	199.467
7.9425	101.171	99.363	199.466
7.945	101.169	99.3659	199.465
7.9475	101.167	99.3688	199.464
7.95	101.165	99.3717	199.464
7.9525	101.163	99.3746	199.463
7.955	101.161	99.3774	199.462
7.9575	101.159	99.3803	199.461
7.96	101.157	99.3832	199.46
7.9625	101.155	99.3861	199.459
7.965	101.153	99.3889	199.458
7.9675	101.151	99.3918	199.457
7.97	101.149	99.3947	199.457
7.9725	101.147	99.3975	199.456
7.975	101.145	99.4004	199.455
7.9775	101.143	99.4032	199.454
7.98	101.141	99.406	199.453
7.9825	101.139	99.4089	199.453
7.985	101.137	99.4117	199.452
7.9875	101.135	99.4145	199.451
7.99	101.132	99.4173	199.45
7.9925	101.13	99.4202	199.449
7.995	101.128	99.423	199.449
7.9975	101.126	99.4258	199.448
8	101.124	99.4286	199.447
8.0025	101.122	99.4313	199.446
8.005	101.12	99.4341	199.446
8.0075	101.118	99.4369	199.445
8.01	101.116	99.4397	199.444
8.0125	101.114	99.4425	199.444
8.015	101.112	99.4452	199.443
8.0175	101.11	99.448	199.442
8.02	101.108	99.4508	199.442
8.0225	101.106	99.4535	199.441
8.025	101.104	99.4563	199.44
8.0275	101.101	99.459	199.44
8.03	101.099	99.4617	199.439
8.0325	101.097	99.4645	199.438
8.035	101.095	99.4672	199.438
8.0375	101.093	99.4699	199.437
8.04	101.091	99.4726	199.436
8.0425	101.089	99.4753	199.436
8.045	101.087	99.478	199.435
8.0475	101.085	99.4807	199.435
8.05	101.083	99.4834	199.434
8.0525	101.08	99.4861	199.433
8.055	101.078	99.4888	199.433
8.0575	101.076	99.4915	199.432
8.06	101.074	99.4942	199.432
8.0625	101.072	99.4968	199.431
8.065	101.07	99.4995	199.431
8.0675	101.068	99.5022	199.43
8.07	101.066	99.5048	199.43
8.0725	101.064	99.5075	199.429
8.075	101.061	99.5101	199.429
8.0775	101.059	99.5127	199.428
8.08	101.057	99.5154	199.427
8.0825	101.055	99.518	199.427
8.085	101.053	99.5206	199.427
8.0875	101.051	99.5232	199.426
8.09	101.049	99.5258	199.426
8.0925	101.046	99.5285	199.425
8.095	101.044	99.5311	199.425
8.0975	101.042	99.5337	199.424
8.1	101.04	99.5362	199.424
8.1025	101.038	99.5388	199.423
8.105	101.036	99.5414	199.423
8.1075	101.034	99.544	199.422
8.11	101.031	99.5466	199.422
8.1125	101.029	99.5491	199.422
8.115	101.027	99.5517	199.421
8.1175	101.025	99.5542	199.421
8.12	101.023	99.5568	199.42
8.1225	101.021	99.5593	199.42
8.125	101.018	99.5619	199.42
8.1275	101.016	99.5644	199.419
8.13	101.014	99.5669	199.419
8.1325	101.012	99.5694	199.419
8.135	101.01	99.572	199.418
8.1375	101.008	99.5745	199.418
8.14	101.005	99.577	199.418
8.1425	101.003	99.5795	199.417
8.145	101.001	99.582	199.417
8.1475	100.999	99.5845	199.417
8.15	100.997	99.5869	199.416
8.1525	100.995	99.5894	199.416
8.155	100.992	99.5919	199.416
8.1575	100.99	99.5944	199.415
8.16	100.988	99.5968	199.415
8.1625	100.986	99.5993	199.415
8.165	100.984	99.6017	199.415
8.1675	100.981	99.6042	199.414
8.17	100.979	99.6066	199.414
8.1725	100.977	99.6091	199.414
8.175	100.975	99.6115	199.414
8.1775	100.973	99.6139	199.413
8.18	100.97	99.6163	199.413
8.1825	100.968	99.6187	199.413
8.185	100.966	99.6212	199.413
8.1875	100.964	99.6236	199.413
8.19	100.962	99.626	199.412
8.1925	100.96	99.6283	199.412
8.195	100.957	99.6307	199.412
8.1975	100.955	99.6331	199.412
8.2	100.953	99.6355	199.412
8.2025	100.951	99.6379	199.411
8.205	100.949	99.6402	199.411
8.2075	100.946	99.6426	199.411
8.21	100.944	99.6449	199.411
8.2125	100.942	99.6473	199.411
8.215	100.94	99.6496	199.411
8.2175	100.938	99.652	199.41
8.22	100.935	99.6543	199.41
8.2225	100.933	99.6566	199.41
8.225	100.931	99.659	199.41
8.2275	100.929	99.6613	199.41
8.23	100.927	99.6636	199.41
8.2325	100.924	99.6659	199.41
8.235	100.922	99.6682	199.41
8.2375	100.92	99.6705	199.41
8.24	100.918	99.6728	199.41
8.2425	100.915	99.6751	199.409
8.245	100.913	99.6773	199.409
8.2475	100.911	99.6796	199.409
8.25	100.909	99.6819	199.409
8.2525	100.907	99.6841	199.409
8.255	100.904	99.6864	199.409
8.2575	100.902	99.6886	199.409
8.26	100.9	99.6909	199.409
8.2625	100.898	99.6931	199.409
8.265	100.896	99.6954	199.409
8.2675	100.893	99.6976	199.409
8.27	100.891	99.6998	199.409
8.2725	100.889	99.702	199.409
8.275	100.887	99.7043	199.409
8.2775	100.885	99.7065	199.409
8.28	100.882	99.7087	199.409
8.2825	100.88	99.7109	199.409
8.285	100.878	99.7131	199.409
8.2875	100.876	99.7152	199.409
8.29	100.874	99.7174	199.409
8.2925	100.871	99.7196	199.409
8.295	100.869	99.7218	199.409
8.2975	100.867	99.7239	199.409
8.3	100.865	99.7261	199.409
8.3025	100.862	99.7282	199.409
8.305	100.86	99.7304	199.409
8.3075	100.858	99.7325	199.409
8.31	100.856	99.7347	199.41
8.3125	100.854	99.7368	199.41
8.315	100.851	99.7389	199.41
8.3175	100.849	99.741	199.41
8.32	100.847	99.7432	199.41
8.3225	100.845	99.7453	199.41
8.325	100.843	99.7474	199.41
8.3275	100.84	99.7495	199.41
8.33	100.838	99.7516	199.41
8.3325	100.836	99.7536	199.41
8.335	100.834	99.7557	199.411
8.3375	100.832	99.7578	199.411
8.34	100.829	99.7599	199.411
8.3425	100.827	99.7619	199.411
8.345	100.825	99.764	199.411
8.3475	100.823	99.7661	199.411
8.35	100.821	99.7681	199.411
8.3525	100.818	99.7702	199.412
8.355	100.816	99.7722	199.412
8.3575	100.814	99.7742	199.412
8.36	100.812	99.7763	199.412
8.3625	100.81	99.7783	199.412
8.365	100.807	99.7803	199.412
8.3675	100.805	99.7823	199.413
8.37	100.803	99.7843	199.413
8.3725	100.801	99.7863	199.413
8.375	100.799	99.7883	199.413
8.3775	100.796	99.7903	199.413
8.38	100.794	99.7923	199.414
8.3825	100.792	99.7943	199.414
8.385	100.79	99.7962	199.414
8.3875	100.788	99.7982	199.414
8.39	100.785	99.8002	199.414
8.3925	100.783	99.8021	199.415
8.395	100.781	99.8041	199.415
8.3975	100.779	99.806	199.415
8.4	100.777	99.808	199.415
8.4025	100.774	99.8099	199.416
8.405	100.772	99.8118	199.416
8.4075	100.77	99.8137	199.416
8.41	100.768	99.8157	199.416
8.4125	100.766	99.8176	199.417
8.415	100.763	99.8195	199.417
8.4175	100.761	99.8214	199.417
8.42	100.759	99.8233	199.418
8.4225	100.757	99.8252	199.418
8.425	100.755	99.8271	199.418
8.4275	100.753	99.8289	199.418
8.43	100.75	99.8308	199.419
8.4325	100.748	99.8327	199.419
8.435	100.746	99.8345	199.419
8.4375	100.744	99.8364	199.42
8.44	100.742	99.8383	199.42
8.4425	100.74	99.8401	199.42
8.445	100.737	99.842	199.421
8.4475	100.735	99.8438	199.421
8.45	100.733	99.8456	199.421
8.4525	100.731	99.8475	199.422
8.455	100.729	99.8493	199.422
8.4575	100.727	99.8511	199.422
8.46	100.724	99.8529	199.423
8.4625	100.722	99.8547	199.423
8.465	100.72	99.8565	199.423
8.4675	100.718	99.8583	199.424
8.47	100.716	99.8601	199.424
8.4725	100.714	99.8619	199.425
8.475	100.711	99.8637	199.425
8.4775	100.709	99.8654	199.425
8.48	100.707	99.8672	199.426
8.4825	100.705	99.869	199.426
8.485	100.703	99.8707	199.426
8.4875	100.701	99.8725	199.427
8.49	100.699	99.8742	199.427
8.4925	100.696	99.876	199.428
8.495	100.694	99.8777	199.428
8.4975	100.692	99.8794	199.428
8.5	100.69	99.8811	199.429
8.5025	100.688	99.8829	199.429
8.505	100.686	99.8846	199.43
8.5075	100.684	99.8863	199.43
8.51	100.681	99.888	199.431
8.5125	100.679	99.8897	199.431
8.515	100.677	99.8914	199.431
8.5175	100.675	99.8931	199.432
8.52	100.673	99.8948	199.432
8.5225	100.671	99.8964	199.433
8.525	100.669	99.8981	199.433
8.5275	100.667	99.8998	199.434
8.53	100.664	99.9014	199.434
8.5325	100.662	99.9031	199.435
8.535	100.66	99.9048	199.435
8.5375	100.658	99.9064	199.436
8.54	100.656	99.908	199.436
8.5425	100.654	99.9097	199.437
8.545	100.652	99.9113	199.437
8.5475	100.65	99.9129	199.437
8.55	100.647	99.9145	199.438
8.5525	100.645	99.9162	199.438
8.555	100.643	99.9178	199.439
8.5575	100.641	99.9194	199.439
8.56	100.639	99.921	199.44
8.5625	100.637	99.9226	199.44
8.565	100.635	99.9242	199.441
8.5675	100.633	99.9257	199.441
8.57	100.631	99.9273	199.442
8.5725	100.629	99.9289	199.442
8.575	100.627	99.9305	199.443
8.5775	100.624	99.932	199.444
8.58	100.622	99.9336	199.444
8.5825	100.62	99.9351	199.445
8.585	100.618	99.9367	199.445
8.5875	100.616	99.9382	199.446
8.59	100.614	99.9398	199.446
8.5925	100.612	99.9413	199.447
8.595	100.61	99.9428	199.447
8.5975	100.608	99.9443	199.448
8.6	100.606	99.9459	199.448
8.6025	100.604	99.9474	199.449
8.605	100.602	99.9489	199.45
8.6075	100.6	99.9504	199.45
8.61	100.597	99.9519	199.451
8.6125	100.595	99.9534	199.451
8.615	100.593	99.9548	199.452
8.6175	100.591	99.9563	199.452
8.62	100.589	99.9578	199.453
8.6225	100.587	99.9593	199.454
8.625	100.585	99.9607	199.454
8.6275	100.583	99.9622	199.455
8.63	100.581	99.9636	199.455
8.6325	100.579	99.9651	199.456
8.635	100.577	99.9665	199.456
8.6375	100.575	99.968	199.457
8.64	100.573	99.9694	199.458
8.6425	100.571	99.9708	199.458
8.645	100.569	99.9723	199.459
8.6475	100.567	99.9737	199.459
8.65	100.565	99.9751	199.46
8.6525	100.563	99.9765	199.461
8.655	100.561	99.9779	199.461
8.6575	100.559	99.9793	199.462
8.66	100.557	99.9807	199.463
8.6625	100.555	99.9821	199.463
8.665	100.553	99.9835	199.464
8.6675	100.551	99.9849	199.464
8.67	100.549	99.9862	199.465
8.6725	100.547	99.9876	199.466
8.675	100.545	99.989	199.466
8.6775	100.543	99.9903	199.467
8.68	100.541	99.9917	199.468
8.6825	100.539	99.993	199.468
8.685	100.537	99.9944	199.469
8.6875	100.535	99.9957	199.47
8.69	100.533	99.9971	199.47
8.6925	100.531	99.9984	199.471
8.695	100.529	99.9997	199.472
8.6975	100.527	100.001	199.472
8.7	100.525	100.002	199.473
8.7025	100.523	100.004	199.474
8.705	100.521	100.005	199.474
8.7075	100.519	100.006	199.475
8.71	100.517	100.008	199.476
8.7125	100.515	100.009	199.476
8.715	100.513	100.01	199.477
8.7175	100.511	100.011	199.478
8.72	100.509	100.013	199.478
8.7225	100.507	100.014	199.479
8.725	100.505	100.015	199.48
8.7275	100.503	100.016	199.48
8.73	100.501	100.018	199.481
8.7325	100.499	100.019	199.482
8.735	100.497	100.02	199.482
8.7375	100.495	100.021	199.483
8.74	100.493	100.023	199.484
8.7425	100.492	100.024	199.485
8.745	100.49	100.025	199.485
8.7475	100.488	100.026	199.486
8.75	100.486	100.028	199.487
8.7525	100.484	100.029	199.487
8.755	100.482	100.03	199.488
8.7575	100.48	100.031	199.489
8.76	100.478	100.032	199.489
8.7625	100.476	100.034	199.49
8.765	100.474	100.035	199.491
8.7675	100.472	100.036	199.492
8.77	100.47	100.037	199.492
8.7725	100.469	100.038	199.493
8.775	100.467	100.04	199.494
8.7775	100.465	100.041	199.495
8.78	100.463	100.042	199.495
8.7825	100.461	100.043	199.496
8.785	100.459	100.044	199.497
8.7875	100.457	100.045	199.498
8.79	100.455	100.046	199.498
8.7925	100.453	100.048	199.499
8.795	100.452	100.049	199.5
8.7975	100.45	100.05	199.5
8.8	100.448	100.051	199.501
8.8025	100.446	100.052	199.502
8.805	100.444	100.053	199.503
8.8075	100.442	100.054	199.504
8.81	100.44	100.055	199.504
8.8125	100.438	100.056	199.505
8.815	100.437	100.058	199.506
8.8175	100.435	100.059	199.507
8.82	100.433	100.06	199.507
8.8225	100.431	100.061	199.508
8.825	100.429	100.062	199.509
8.8275	100.427	100.063	199.51
8.83	100.426	100.064	199.51
8.8325	100.424	100.065	199.511
8.835	100.422	100.066	199.512
8.8375	100.42	100.067	199.513
8.84	100.418	100.068	199.513
8.8425	100.416	100.069	199.514
8.845	100.415	100.07	199.515
8.8475	100.413	100.071	199.516
8.85	100.411	100.072	199.517
8.8525	100.409	100.073	199.517
8.855	100.407	100.074	199.518
8.8575	100.406	100.075	199.519
8.86	100.404	100.076	199.52
8.8625	100.402	100.078	199.521
8.865	100.4	100.079	199.521
8.8675	100.398	100.08	199.522
8.87	100.397	100.081	199.523
8.8725	100.395	100.081	199.524
8.875	100.393	100.082	199.525
8.8775	100.391	100.083	199.525
8.88	100.389	100.084	199.526
8.8825	100.388	100.085	199.527
8.885	100.386	100.086	199.528
8.8875	100.384	100.087	199.529
8.89	100.382	100.088	199.529
8.8925	100.381	100.089	199.53
8.895	100.379	100.09	199.531
8.8975	100.377	100.091	199.532
8.9	100.375	100.092	199.533
8.9025	100.374	100.093	199.533
8.905	100.372	100.094	199.534
8.9075	100.37	100.095	199.535
8.91	100.368	100.096	199.536
8.9125	100.367	100.097	199.537
8.915	100.365	100.098	199.538
8.9175	100.363	100.099	199.538
8.92	100.361	100.099	199.539
8.9225	100.36	100.1	199.54
8.925	100.358	100.101	199.541
8.9275	100.356	100.102	199.542
8.93	100.354	100.103	199.542
8.9325	100.353	100.104	199.543
8.935	100.351	100.105	199.544
8.9375	100.349	100.106	199.545
8.94	100.348	100.107	199.546
8.9425	100.346	100.107	199.547
8.945	100.344	100.108	199.547
8.9475	100.343	100.109	199.548
8.95	100.341	100.11	199.549
8.9525	100.339	100.111	199.55
8.955	100.337	100.112	199.551
8.9575	100.336	100.113	199.552
8.96	100.334	100.113	199.553
8.9625	100.332	100.114	199.553
8.965	100.331	100.115	199.554
8.9675	100.329	100.116	199.555
8.97	100.327	100.117	199.556
8.9725	100.326	100.118	199.557
8.975	100.324	100.118	199.558
8.9775	100.322	100.119	199.558
8.98	100.321	100.12	199.559
8.9825	100.319	100.121	199.56
8.985	100.317	100.122	199.561
8.9875	100.316	100.122	199.562
8.99	100.314	100.123	199.563
8.9925	100.313	100.124	199.564
8.995	100.311	100.125	199.564
8.9975	100.309	100.125	199.565
9	100.308	100.126	199.566
9.0025	100.306	100.127	199.567
9.005	100.304	100.128	199.568
9.0075	100.303	100.129	199.569
9.01	100.301	100.129	199.57
9.0125	100.3	100.13	199.57
9.015	100.298	100.131	199.571
9.0175	100.296	100.132	199.572
9.02	100.295	100.132	199.573
9.0225	100.293	100.133	199.574
9.025	100.292	100.134	199.575
9.0275	100.29	100.134	199.576
9.03	100.288	100.135	199.576
9.0325	100.287	100.136	199.577
9.035	100.285	100.137	199.578
9.0375	100.284	100.137	199.579
9.04	100.282	100.138	199.58
9.0425	100.28	100.139	199.581
9.045	100.279	100.139	199.582
9.0475	100.277	100.14	199.583
9.05	100.276	100.141	199.583
9.0525	100.274	100.142	199.584
9.055	100.273	100.142	199.585
9.0575	100.271	100.143	199.586
9.06	100.269	100.144	199.587
9.0625	100.268	100.144	199.588
9.065	100.266	100.145	199.589
9.0675	100.265	100.146	199.59
9.07	100.263	100.146	199.59
9.0725	100.262	100.147	199.591
9.075	100.26	100.148	199.592
9.0775	100.259	100.148	199.593
9.08	100.257	100.149	199.594
9.0825	100.256	100.149	199.595
9.085	100.254	100.15	199.596
9.0875	100.253	100.151	199.597
9.09	100.251	100.151	199.597
9.0925	100.25	100.152	199.598
9.095	100.248	100.153	199.599
9.0975	100.247	100.153	199.6
9.1	100.245	100.154	199.601
9.1025	100.244	100.154	199.602
9.105	100.242	100.155	199.603
9.1075	100.241	100.156	199.604
9.11	100.239	100.156	199.605
9.1125	100.238	100.157	199.605
9.115	100.236	100.157	199.606
9.1175	100.235	100.158	199.607
9.12	100.233	100.159	199.608
9.1225	100.232	100.159	199.609
9.125	100.23	100.16	199.61
9.1275	100.229	100.16	199.611
9.13	100.227	100.161	199.612
9.1325	100.226	100.162	199.613
9.135	100.224	100.162	199.613
9.1375	100.223	100.163	199.614
9.14	100.222	100.163	199.615
9.1425	100.22	100.164	199.616
9.145	100.219	100.164	199.617
9.1475	100.217	100.165	199.618
9.15	100.216	100.165	199.619
9.1525	100.214	100.166	199.62
9.155	100.213	100.166	199.621
9.1575	100.212	100.167	199.621
9.16	100.21	100.168	199.622
9.1625	100.209	100.168	199.623
9.165	100.207	100.169	199.624
9.1675	100.206	100.169	199.625
9.17	100.205	100.17	199.626
9.1725	100.203	100.17	199.627
9.175	100.202	100.171	199.628
9.1775	100.2	100.171	199.629
9.18	100.199	100.172	199.629
9.1825	100.198	100.172	199.63
9.185	100.196	100.173	199.631
9.1875	100.195	100.173	199.632
9.19	100.193	100.174	199.633
9.1925	100.192	100.174	199.634
9.195	100.191	100.175	199.635
9.1975	100.189	100.175	199.636
9.2	100.188	100.176	199.637
9.2025	100.187	100.176	199.637
9.205	100.185	100.176	199.638
9.2075	100.184	100.177	199.639
9.21	100.182	100.177	199.64
9.2125	100.181	100.178	199.641
9.215	100.18	100.178	199.642
9.2175	100.178	100.179	199.643
9.22	100.177	100.179	199.644
9.2225	100.176	100.18	199.645
9.225	100.174	100.18	199.646
9.2275	100.173	100.18	199.646
9.23	100.172	100.181	199.647
9.2325	100.17	100.181	199.648
9.235	100.169	100.182	199.649
9.2375	100.168	100.182	199.65
9.24	100.167	100.183	199.651
9.2425	100.165	100.183	199.652
9.245	100.164	100.183	199.653
9.2475	100.163	100.184	199.654
9.25	100.161	100.184	199.654
9.2525	100.16	100.185	199.655
9.255	100.159	100.185	199.656
9.2575	100.157	100.185	199.657
9.26	100.156	100.186	199.658
9.2625	100.155	100.186	199.659
9.265	100.154	100.187	199.66
9.2675	100.152	100.187	199.661
9.27	100.151	100.187	199.662
9.2725	100.15	100.188	199.662
9.275	100.148	100.188	199.663
9.2775	100.147	100.188	199.664
9.28	100.146	100.189	199.665
9.2825	100.145	100.189	199.666
9.285	100.143	100.19	199.667
9.2875	100.142	100.19	199.668
9.29	100.141	100.19	199.669
9.2925	100.14	100.191	199.67
9.295	100.139	100.191	199.67
9.2975	100.137	100.191	199.671
9.3	100.136	100.192	199.672
9.3025	100.135	100.192	199.673
9.305	100.134	100.192	199.674
9.3075	100.132	100.193	199.675
9.31	100.131	100.193	199.676
9.3125	100.13	100.193	199.677
9.315	100.129	100.194	199.678
9.3175	100.128	100.194	199.678
9.32	100.126	100.194	199.679
9.3225	100.125	100.195	199.68
9.325	100.124	100.195	199.681
9.3275	100.123	100.195	199.682
9.33	100.122	100.196	199.683
9.3325	100.12	100.196	199.684
9.335	100.119	100.196	199.685
9.3375	100.118	100.196	199.686
9.34	100.117	100.197	199.686
9.3425	100.116	100.197	199.687
9.345	100.114	100.197	199.688
9.3475	100.113	100.198	199.689
9.35	100.112	100.198	199.69
9.3525	100.111	100.198	199.691
9.355	100.11	100.198	199.692
9.3575	100.109	100.199	199.693
9.36	100.107	100.199	199.694
9.3625	100.106	100.199	199.694
9.365	100.105	100.2	199.695
9.3675	100.104	100.2	199.696
9.37	100.103	100.2	199.697
9.3725	100.102	100.2	199.698
9.375	100.101	100.201	199.699
9.3775	100.1	100.201	199.7
9.38	100.098	100.201	199.701
9.3825	100.097	100.201	199.701
9.385	100.096	100.202	199.702
9.3875	100.095	100.202	199.703
9.39	100.094	100.202	199.704
9.3925	100.093	100.202	199.705
9.395	100.092	100.202	199.706
9.3975	100.091	100.203	199.707
9.4	100.09	100.203	199.708
9.4025	100.088	100.203	199.708
9.405	100.087	100.203	199.709
9.4075	100.086	100.204	199.71
9.41	100.085	100.204	199.711
9.4125	100.084	100.204	199.712
9.415	100.083	100.204	199.713
9.4175	100.082	100.204	199.714
9.42	100.081	100.205	199.715
9.4225	100.08	100.205	199.715
9.425	100.079	100.205	199.716
9.4275	100.078	100.205	199.717
9.43	100.077	100.205	199.718
9.4325	100.076	100.206	199.719
9.435	100.074	100.206	199.72
9.4375	100.073	100.206	199.721
9.44	100.072	100.206	199.721
9.4425	100.071	100.206	199.722
9.445	100.07	100.207	199.723
9.4475	100.069	100.207	199.724
9.45	100.068	100.207	199.725
9.4525	100.067	100.207	199.726
9.455	100.066	100.207	199.727
9.4575	100.065	100.207	199.727
9.46	100.064	100.208	199.728
9.4625	100.063	100.208	199.729
9.465	100.062	100.208	199.73
9.4675	100.061	100.208	199.731
9.47	100.06	100.208	199.732
9.4725	100.059	100.208	199.733
9.475	100.058	100.208	199.733
9.4775	100.057	100.209	199.734
9.48	100.056	100.209	199.735
9.4825	100.055	100.209	199.736
9.485	100.054	100.209	199.737
9.4875	100.053	100.209	199.738
9.49	100.052	100.209	199.739
9.4925	100.051	100.209	199.739
9.495	100.05	100.21	199.74
9.4975	100.049	100.21	199.741
9.5	100.048	100.21	199.742
9.5025	100.047	100.21	199.743
9.505	100.046	100.21	199.744
9.5075	100.045	100.21	199.745
9.51	100.044	100.21	199.745
9.5125	100.043	100.21	199.746
9.515	100.042	100.21	199.747
9.5175	100.042	100.211	199.748
9.52	100.041	100.211	199.749
9.5225	100.04	100.211	199.75
9.525	100.039	100.211	199.75
9.5275	100.038	100.211	199.751
9.53	100.037	100.211	199.752
9.5325	100.036	100.211	199.753
9.535	100.035	100.211	199.754
9.5375	100.034	100.211	199.755
9.54	100.033	100.211	199.755
9.5425	100.032	100.212	199.756
9.545	100.031	100.212	199.757
9.5475	100.03	100.212	199.758
9.55	100.029	100.212	199.759
9.5525	100.029	100.212	199.76
9.555	100.028	100.212	199.76
9.5575	100.027	100.212	199.761
9.56	100.026	100.212	199.762
9.5625	100.025	100.212	199.763
9.565	100.024	100.212	199.764
9.5675	100.023	100.212	199.765
9.57	100.022	100.212	199.765
9.5725	100.021	100.212	199.766
9.575	100.021	100.212	199.767
9.5775	100.02	100.212	199.768
9.58	100.019	100.212	199.769
9.5825	100.018	100.213	199.769
9.585	100.017	100.213	199.77
9.5875	100.016	100.213	199.771
9.59	100.015	100.213	199.772
9.5925	100.015	100.213	199.773
9.595	100.014	100.213	199.774
9.5975	100.013	100.213	199.774
9.6	100.012	100.213	199.775
9.6025	100.011	100.213	199.776
9.605	100.01	100.213	199.777
9.6075	100.01	100.213	199.778
9.61	100.009	100.213	199.778
9.6125	100.008	100.213	199.779
9.615	100.007	100.213	199.78
9.6175	100.006	100.213	199.781
9.62	100.005	100.213	199.782
9.6225	100.005	100.213	199.782
9.625	100.004	100.213	199.783
9.6275	100.003	100.213	199.784
9.63	100.002	100.213	199.785
9.6325	100.001	100.213	199.786
9.635	100.001	100.213	199.786
9.6375	99.9997	100.213	199.787
9.64	99.9989	100.213	199.788
9.6425	99.9981	100.213	199.789
9.645	99.9973	100.213	199.79
9.6475	99.9966	100.213	199.79
9.65	99.9958	100.213	199.791
9.6525	99.995	100.213	199.792
9.655	99.9942	100.213	199.793
9.6575	99.9934	100.213	199.794
9.66	99.9927	100.213	199.794
9.6625	99.9919	100.213	199.795
9.665	99.9911	100.213	199.796
9.6675	99.9904	100.213	199.797
9.67	99.9896	100.213	199.798
9.6725	99.9888	100.213	199.798
9.675	99.9881	100.213	199.799
9.6775	99.9873	100.213	199.8
9.68	99.9866	100.213	199.801
9.6825	99.9858	100.213	199.801
9.685	99.9851	100.213	199.802
9.6875	99.9844	100.213	199.803
9.69	99.9836	100.213	199.804
9.6925	99.9829	100.213	199.805
9.695	99.9822	100.212	199.805
9.6975	99.9814	100.212	199.806
9.7	99.9807	100.212	199.807
9.7025	99.98	100.212	199.808
9.705	99.9793	100.212	199.808
9.7075	99.9785	100.212	199.809
9.71	99.9778	100.212	199.81
9.7125	99.9771	100.212	199.811
9.715	99.9764	100.212	199.812
9.7175	99.9757	100.212	199.812
9.72	99.975	100.212	199.813
9.7225	99.9743	100.212	199.814
9.725	99.9736	100.212	199.815
9.7275	99.9729	100.212	199.815
9.73	99.9722	100.212	199.816
9.7325	99.9715	100.212	199.817
9.735	99.9708	100.212	199.818
9.7375	99.9702	100.211	199.818
9.74	99.9695	100.211	199.819
9.7425	99.9688	100.211	199.82
9.745	99.9681	100.211	199.821
9.7475	99.9675	100.211	199.821
9.75	99.9668	100.211	199.822
9.7525	99.9661	100.211	199.823
9.755	99.9655	100.211	199.824
9.7575	99.9648	100.211	199.824
9.76	99.9642	100.211	199.825
9.7625	99.9635	100.211	199.826
9.765	99.9628	100.211	199.827
9.7675	99.9622	100.21	199.827
9.77	99.9616	100.21	199.828
9.7725	99.9609	100.21	199.829
9.775	99.9603	100.21	199.83
9.7775	99.9596	100.21	199.83
9.78	99.959	100.21	199.831
9.7825	99.9584	100.21	199.832
9.785	99.9577	100.21	199.833
9.7875	99.9571	100.21	199.833
9.79	99.9565	100.21	199.834
9.7925	99.9559	100.209	199.835
9.795	99.9552	100.209	199.835
9.7975	99.9546	100.209	199.836
9.8	99.954	100.209	199.837
9.8025	99.9534	100.209	199.838
9.805	99.9528	100.209	199.838
9.8075	99.9522	100.209	199.839
9.81	99.9516	100.209	199.84
9.8125	99.951	100.208	199.841
9.815	99.9504	100.208	199.841
9.8175	99.9498	100.208	199.842
9.82	99.9492	100.208	199.843
9.8225	99.9486	100.208	199.843
9.825	99.948	100.208	199.844
9.8275	99.9475	100.208	199.845
9.83	99.9469	100.208	199.846
9.8325	99.9463	100.207	199.846
9.835	99.9457	100.207	199.847
9.8375	99.9452	100.207	199.848
9.84	99.9446	100.207	199.848
9.8425	99.944	100.207	199.849
9.845	99.9435	100.207	199.85
9.8475	99.9429	100.207	199.851
9.85	99.9423	100.206	199.851
9.8525	99.9418	100.206	199.852
9.855	99.9412	100.206	199.853
9.8575	99.9407	100.206	199.853
9.86	99.9401	100.206	199.854
9.8625	99.9396	100.206	199.855
9.865	99.939	100.206	199.855
9.8675	99.9385	100.205	199.856
9.87	99.938	100.205	199.857
9.8725	99.9374	100.205	199.857
9.875	99.9369	100.205	199.858
9.8775	99.9364	100.205	199.859
9.88	99.9358	100.205	199.86
9.8825	99.9353	100.204	199.86
9.885	99.9348	100.204	199.861
9.8875	99.9343	100.204	199.862
9.89	99.9337	100.204	199.862
9.8925	99.9332	100.204	199.863
9.895	99.9327	100.204	199.864
9.8975	99.9322	100.203	199.864
9.9	99.9317	100.203	199.865
9.9025	99.9312	100.203	199.866
9.905	99.9307	100.203	199.866
9.9075	99.9302	100.203	199.867
9.91	99.9297	100.203	199.868
9.9125	99.9292	100.202	199.868
9.915	99.9287	100.202	199.869
9.9175	99.9282	100.202	199.87
9.92	99.9277	100.202	199.87
9.9225	99.9272	100.202	199.871
9.925	99.9268	100.202	199.872
9.9275	99.9263	100.201	199.872
9.93	99.9258	100.201	199.873
9.9325	99.9253	100.201	199.874
9.935	99.9249	100.201	199.874
9.9375	99.9244	100.201	199.875
9.94	99.9239	100.2	199.876
9.9425	99.9235	100.2	199.876
9.945	99.923	100.2	199.877
9.9475	99.9225	100.2	199.878
9.95	99.9221	100.2	199.878
9.9525	99.9216	100.199	199.879
9.955	99.9212	100.199	199.88
9.9575	99.9207	100.199	199.88
9.96	99.9203	100.199	199.881
9.9625	99.9198	100.199	199.882
9.965	99.9194	100.198	199.882
9.9675	99.919	100.198	199.883
9.97	99.9185	100.198	199.883
9.9725	99.9181	100.198	199.884
9.975	99.9176	100.198	199.885
9.9775	99.9172	100.197	199.885
9.98	99.9168	100.197	199.886
9.9825	99.9164	100.197	199.887
9.985	99.9159	100.197	199.887
9.9875	99.9155	100.197	199.888
9.99	99.9151	100.196	199.889
9.9925	99.9147	100.196	199.889
9.995	99.9143	100.196	199.89
9.9975	99.9139	100.196	199.89
10	99.9134	100.196	199.891
10.0025	99.913	100.195	199.892
10.005	99.9126	100.195	199.892
10.0075	99.9122	100.195	199.893
10.01	99.9118	100.195	199.894
10.0125	99.9114	100.194	199.894
10.015	99.911	100.194	199.895
10.0175	99.9106	100.194	199.895
10.02	99.9103	100.194	199.896
10.0225	99.9099	100.194	199.897
10.025	99.9095	100.193	199.897
10.0275	99.9091	100.193	199.898
10.03	99.9087	100.193	199.898
10.0325	99.9083	100.193	199.899
10.035	99.908	100.192	199.9
10.0375	99.9076	100.192	199.9
10.04	99.9072	100.192	199.901
10.0425	99.9068	100.192	199.901
10.045	99.9065	100.191	199.902
10.0475	99.9061	100.191	199.903
10.05	99.9057	100.191	199.903
10.0525	99.9054	100.191	199.904
10.055	99.905	100.191	199.904
10.0575	99.9047	100.19	199.905
10.06	99.9043	100.19	199.906
10.0625	99.904	100.19	199.906
10.065	99.9036	100.19	199.907
10.0675	99.9033	100.189	199.907
10.07	99.9029	100.189	199.908
10.0725	99.9026	100.189	199.909
10.075	99.9022	100.189	199.909
10.0775	99.9019	100.188	199.91
10.08	99.9016	100.188	199.91
10.0825	99.9012	100.188	199.911
10.085	99.9009	100.188	199.912
10.0875	99.9006	100.187	199.912
10.09	99.9002	100.187	199.913
10.0925	99.8999	100.187	199.913
10.095	99.8996	100.187	199.914
10.0975	99.8993	100.186	199.914
10.1	99.8989	100.186	199.915
10.1025	99.8986	100.186	199.916
10.105	99.8983	100.186	199.916
10.1075	99.898	100.185	199.917
10.11	99.8977	100.185	199.917
10.1125	99.8974	100.185	199.918
10.115	99.8971	100.185	199.918
10.1175	99.8968	100.184	199.919
10.12	99.8965	100.184	199.92
10.1225	99.8962	100.184	199.92
10.125	99.8959	100.184	199.921
10.1275	99.8956	100.183	199.921
10.13	99.8953	100.183	199.922
10.1325	99.895	100.183	199.922
10.135	99.8947	100.182	199.923
10.1375	99.8944	100.182	199.923
10.14	99.8941	100.182	199.924
10.1425	99.8938	100.182	199.924
10.145	99.8936	100.181	199.925
10.1475	99.8933	100.181	199.926
10.15	99.893	100.181	199.926
10.1525	99.8927	100.181	199.927
10.155	99.8924	100.18	199.927
10.1575	99.8922	100.18	199.928
10.16	99.8919	100.18	199.928
10.1625	99.8916	100.18	199.929
10.165	99.8914	100.179	199.929
10.1675	99.8911	100.179	199.93
10.17	99.8908	100.179	199.93
10.1725	99.8906	100.178	199.931
10.175	99.8903	100.178	199.932
10.1775	99.8901	100.178	199.932
10.18	99.8898	100.178	199.933
10.1825	99.8896	100.177	199.933
10.185	99.8893	100.177	199.934
10.1875	99.8891	100.177	199.934
10.19	99.8888	100.176	199.935
10.1925	99.8886	100.176	199.935
10.195	99.8883	100.176	199.936
10.1975	99.8881	100.176	199.936
10.2	99.8879	100.175	199.937
10.2025	99.8876	100.175	199.937
10.205	99.8874	100.175	199.938
10.2075	99.8872	100.175	199.938
10.21	99.8869	100.174	199.939
10.2125	99.8867	100.174	199.939
10.215	99.8865	100.174	199.94
10.2175	99.8863	100.173	199.94
10.22	99.886	100.173	199.941
10.2225	99.8858	100.173	199.941
10.225	99.8856	100.173	199.942
10.2275	99.8854	100.172	199.942
10.23	99.8852	100.172	199.943
10.2325	99.885	100.172	199.943
10.235	99.8847	100.171	199.944
10.2375	99.8845	100.171	199.944
10.24	99.8843	100.171	199.945
10.2425	99.8841	100.171	199.945
10.245	99.8839	100.17	199.946
10.2475	99.8837	100.17	199.946
10.25	99.8835	100.17	199.947
10.2525	99.8833	100.169	199.947
10.255	99.8831	100.169	199.948
10.2575	99.8829	100.169	199.948
10.26	99.8827	100.168	199.949
10.2625	99.8825	100.168	199.949
10.265	99.8824	100.168	199.95
10.2675	99.8822	100.168	199.95
10.27	99.882	100.167	199.951
10.2725	99.8818	100.167	199.951
10.275	99.8816	100.167	199.952
10.2775	99.8814	100.166	199.952
10.28	99.8813	100.166	199.953
10.2825	99.8811	100.166	199.953
10.285	99.8809	100.166	199.954
10.2875	99.8807	100.165	199.954
10.29	99.8806	100.165	199.955
10.2925	99.8804	100.165	199.955
10.295	99.8802	100.164	199.955
10.2975	99.8801	100.164	199.956
10.3	99.8799	100.164	199.956
10.3025	99.8797	100.163	199.957
10.305	99.8796	100.163	199.957
10.3075	99.8794	100.163	199.958
10.31	99.8793	100.163	199.958
10.3125	99.8791	100.162	199.959
10.315	99.879	100.162	199.959
10.3175	99.8788	100.162	199.96
10.32	99.8786	100.161	199.96
10.3225	99.8785	100.161	199.961
10.325	99.8784	100.161	199.961
10.3275	99.8782	100.16	199.961
10.33	99.8781	100.16	199.962
10.3325	99.8779	100.16	199.962
10.335	99.8778	100.159	199.963
10.3375	99.8776	100.159	199.963
10.34	99.8775	100.159	199.964
10.3425	99.8774	100.159	199.964
10.345	99.8772	100.158	199.965
10.3475	99.8771	100.158	199.965
10.35	99.877	100.158	199.965
10.3525	99.8768	100.157	199.966
10.355	99.8767	100.157	199.966
10.3575	99.8766	100.157	199.967
10.36	99.8765	100.156	199.967
10.3625	99.8764	100.156	199.968
10.365	99.8762	100.156	199.968
10.3675	99.8761	100.155	199.968
10.37	99.876	100.155	199.969
10.3725	99.8759	100.155	199.969
10.375	99.8758	100.155	199.97
10.3775	99.8757	100.154	199.97
10.38	99.8755	100.154	199.971
10.3825	99.8754	100.154	199.971
10.385	99.8753	100.153	199.971
10.3875	99.8752	100.153	199.972
10.39	99.8751	100.153	199.972
10.3925	99.875	100.152	199.973
10.395	99.8749	100.152	199.973
10.3975	99.8748	100.152	199.973
10.4	99.8747	100.151	199.974
10.4025	99.8746	100.151	199.974
10.405	99.8745	100.151	199.975
10.4075	99.8744	100.15	199.975
10.41	99.8743	100.15	199.976
10.4125	99.8742	100.15	199.976
10.415	99.8742	100.15	199.976
10.4175	99.8741	100.149	199.977
10.42	99.874	100.149	199.977
10.4225	99.8739	100.149	199.978
10.425	99.8738	100.148	199.978
10.4275	99.8737	100.148	199.978
10.43	99.8737	100.148	199.979
10.4325	99.8736	100.147	199.979
10.435	99.8735	100.147	199.98
10.4375	99.8734	100.147	199.98
10.44	99.8733	100.146	199.98
10.4425	99.8733	100.146	199.981
10.445	99.8732	100.146	199.981
10.4475	99.8731	100.145	199.981
10.45	99.8731	100.145	199.982
10.4525	99.873	100.145	199.982
10.455	99.8729	100.144	199.983
10.4575	99.8729	100.144	199.983
10.46	99.8728	100.144	199.983
10.4625	99.8727	100.144	199.984
10.465	99.8727	100.143	199.984
10.4675	99.8726	100.143	199.985
10.47	99.8726	100.143	199.985
10.4725	99.8725	100.142	199.985
10.475	99.8725	100.142	199.986
10.4775	99.8724	100.142	199.986
10.48	99.8724	100.141	199.986
10.4825	99.8723	100.141	199.987
10.485	99.8723	100.141	199.987
10.4875	99.8722	100.14	199.987
10.49	99.8722	100.14	199.988
10.4925	99.8721	100.14	199.988
10.495	99.8721	100.139	199.989
10.4975	99.872	100.139	199.989
10.5	99.872	100.139	199.989
10.5025	99.872	100.138	199.99
10.505	99.8719	100.138	199.99
10.5075	99.8719	100.138	199.99
10.51	99.8718	100.137	199.991
10.5125	99.8718	100.137	199.991
10.515	99.8718	100.137	199.991
10.5175	99.8718	100.136	199.992
10.52	99.8717	100.136	199.992
10.5225	99.8717	100.136	199.992
10.525	99.8717	100.135	199.993
10.5275	99.8716	100.135	199.993
10.53	99.8716	100.135	199.994
10.5325	99.8716	100.135	199.994
10.535	99.8716	100.134	199.994
10.5375	99.8715	100.134	199.995
10.54	99.8715	100.134	199.995
10.5425	99.8715	100.133	199.995
10.545	99.8715	100.133	199.996
10.5475	99.8715	100.133	199.996
10.55	99.8715	100.132	199.996
10.5525	99.8715	100.132	199.997
10.555	99.8714	100.132	199.997
10.5575	99.8714	100.131	199.997
10.56	99.8714	100.131	199.998
10.5625	99.8714	100.131	199.998
10.565	99.8714	100.13	199.998
10.5675	99.8714	100.13	199.999
10.57	99.8714	100.13	199.999
10.5725	99.8714	100.129	199.999
10.575	99.8714	100.129	200
10.5775	99.8714	100.129	200
10.58	99.8714	100.128	200
10.5825	99.8714	100.128	200.001
10.585	99.8714	100.128	200.001
10.5875	99.8714	100.127	200.001
10.59	99.8714	100.127	200.001
10.5925	99.8714	100.127	200.002
10.595	99.8714	100.126	200.002
10.5975	99.8714	100.126	200.002
10.6	99.8714	100.126	200.003
10.6025	99.8714	100.126	200.003
10.605	99.8715	100.125	200.003
10.6075	99.8715	100.125	200.004
10.61	99.8715	100.125	200.004
10.6125	99.8715	100.124	200.004
10.615	99.8715	100.124	200.005
10.6175	99.8715	100.124	200.005
10.62	99.8716	100.123	200.005
10.6225	99.8716	100.123	200.005
10.625	99.8716	100.123	200.006
10.6275	99.8716	100.122	200.006
10.63	99.8716	100.122	200.006
10.6325	99.8717	100.122	200.007
10.635	99.8717	100.121	200.007
10.6375	99.8717	100.121	200.007
10.64	99.8718	100.121	200.008
10.6425	99.8718	100.12	200.008
10.645	99.8718	100.12	200.008
10.6475	99.8718	100.12	200.008
10.65	99.8719	100.119	200.009
10.6525	99.8719	100.119	200.009
10.655	99.8719	100.119	200.009
10.6575	99.872	100.118	200.01
10.66	99.872	100.118	200.01
10.6625	99.8721	100.118	200.01
10.665	99.8721	100.117	200.01
10.6675	99.8721	100.117	200.011
10.67	99.8722	100.117	200.011
10.6725	99.8722	100.117	200.011
10.675	99.8723	100.116	200.012
10.6775	99.8723	100.116	200.012
10.68	99.8723	100.116	200.012
10.6825	99.8724	100.115	200.012
10.685	99.8724	100.115	200.013
10.6875	99.8725	100.115	200.013
10.69	99.8725	100.114	200.013
10.6925	99.8726	100.114	200.013
10.695	99.8726	100.114	200.014
10.6975	99.8727	100.113	200.014
10.7	99.8727	100.113	200.014
10.7025	99.8728	100.113	200.014
10.705	99.8729	100.112	200.015
10.7075	99.8729	100.112	200.015
10.71	99.873	100.112	200.015
10.7125	99.873	100.111	200.016
10.715	99.8731	100.111	200.016
10.7175	99.8731	100.111	200.016
10.72	99.8732	100.11	200.016
10.7225	99.8733	100.11	200.017
10.725	99.8733	100.11	200.017
10.7275	99.8734	100.11	200.017
10.73	99.8735	100.109	200.017
10.7325	99.8735	100.109	200.018
10.735	99.8736	100.109	200.018
10.7375	99.8737	100.108	200.018
10.74	99.8737	100.108	200.018
10.7425	99.8738	100.108	200.019
10.745	99.8739	100.107	200.019
10.7475	99.8739	100.107	200.019
10.75	99.874	100.107	200.019
10.7525	99.8741	100.106	200.02
10.755	99.8742	100.106	200.02
10.7575	99.8742	100.106	200.02
10.76	99.8743	100.105	200.02
10.7625	99.8744	100.105	200.02
10.765	99.8745	100.105	200.021
10.7675	99.8745	100.104	200.021
10.77	99.8746	100.104	200.021
10.7725	99.8747	100.104	200.021
10.775	99.8748	100.104	200.022
10.7775	99.8749	100.103	200.022
10.78	99.875	100.103	200.022
10.7825	99.875	100.103	200.022
10.785	99.8751	100.102	200.023
10.7875	99.8752	100.102	200.023
10.79	99.8753	100.102	200.023
10.7925	99.8754	100.101	200.023
10.795	99.8755	100.101	200.023
10.7975	99.8756	100.101	200.024
10.8	99.8756	100.1	200.024
10.8025	99.8757	100.1	200.024
10.805	99.8758	100.1	200.024
10.8075	99.8759	100.099	200.025
10.81	99.876	100.099	200.025
10.8125	99.8761	100.099	200.025
10.815	99.8762	100.099	200.025
10.8175	99.8763	100.098	200.025
10.82	99.8764	100.098	200.026
10.8225	99.8765	100.098	200.026
10.825	99.8766	100.097	200.026
10.8275	99.8767	100.097	200.026
10.83	99.8768	100.097	200.027
10.8325	99.8769	100.096	200.027
10.835	99.877	100.096	200.027
10.8375	99.8771	100.096	200.027
10.84	99.8772	100.095	200.027
10.8425	99.8773	100.095	200.028
10.845	99.8774	100.095	200.028
10.8475	99.8775	100.095	200.028
10.85	99.8776	100.094	200.028
10.8525	99.8777	100.094	200.028
10.855	99.8778	100.094	200.029
10.8575	99.8779	100.093	200.029
10.86	99.878	100.093	200.029
10.8625	99.8781	100.093	200.029
10.865	99.8783	100.092	200.029
10.8675	99.8784	100.092	200.03
10.87	99.8785	100.092	200.03
10.8725	99.8786	100.091	200.03
10.875	99.8787	100.091	200.03
10.8775	99.8788	100.091	200.03
10.88	99.8789	100.091	200.03
10.8825	99.879	100.09	200.031
10.885	99.8792	100.09	200.031
10.8875	99.8793	100.09	200.031
10.89	99.8794	100.089	200.031
10.8925	99.8795	100.089	200.031
10.895	99.8796	100.089	200.032
10.8975	99.8797	100.088	200.032
10.9	99.8799	100.088	200.032
10.9025	99.88	100.088	200.032
10.905	99.8801	100.088	200.032
10.9075	99.8802	100.087	200.032
10.91	99.8804	100.087	200.033
10.9125	99.8805	100.087	200.033
10.915	99.8806	100.086	200.033
10.9175	99.8807	100.086	200.033
10.92	99.8809	100.086	200.033
10.9225	99.881	100.085	200.034
10.925	99.8811	100.085	200.034
10.9275	99.8812	100.085	200.034
10.93	99.8814	100.085	200.034
10.9325	99.8815	100.084	200.034
10.935	99.8816	100.084	200.034
10.9375	99.8817	100.084	200.035
10.94	99.8819	100.083	200.035
10.9425	99.882	100.083	200.035
10.945	99.8821	100.083	200.035
10.9475	99.8823	100.083	200.035
10.95	99.8824	100.082	200.035
10.9525	99.8825	100.082	200.036
10.955	99.8827	100.082	200.036
10.9575	99.8828	100.081	200.036
10.96	99.8829	100.081	200.036
10.9625	99.8831	100.081	200.036
10.965	99.8832	100.08	200.036
10.9675	99.8833	100.08	200.036
10.97	99.8835	100.08	200.037
10.9725	99.8836	100.08	200.037
10.975	99.8838	100.079	200.037
10.9775	99.8839	100.079	200.037
10.98	99.884	100.079	200.037
10.9825	99.8842	100.078	200.037
10.985	99.8843	100.078	200.038
10.9875	99.8845	100.078	200.038
10.99	99.8846	100.078	200.038
10.9925	99.8847	100.077	200.038
10.995	99.8849	100.077	200.038
10.9975	99.885	100.077	200.038
11	99.8852	100.076	200.038
11.0025	99.8853	100.076	200.039
11.005	99.8855	100.076	200.039
11.0075	99.8856	100.076	200.039
11.01	99.8858	100.075	200.039
11.0125	99.8859	100.075	200.039
11.015	99.886	100.075	200.039
11.0175	99.8862	100.074	200.039
11.02	99.8863	100.074	200.04
11.0225	99.8865	100.074	200.04
11.025	99.8866	100.074	200.04
11.0275	99.8868	100.073	200.04
11.03	99.8869	100.073	200.04
11.0325	99.8871	100.073	200.04
11.035	99.8872	100.072	200.04
11.0375	99.8874	100.072	200.04
11.04	99.8875	100.072	200.041
11.0425	99.8877	100.072	200.041
11.045	99.8879	100.071	200.041
11.0475	99.888	100.071	200.041
11.05	99.8882	100.071	200.041
11.0525	99.8883	100.07	200.041
11.055	99.8885	100.07	200.041
11.0575	99.8886	100.07	200.041
11.06	99.8888	100.07	200.042
11.0625	99.8889	100.069	200.042
11.065	99.8891	100.069	200.042
11.0675	99.8893	100.069	200.042
11.07	99.8894	100.069	200.042
11.0725	99.8896	100.068	200.042
11.075	99.8897	100.068	200.042
11.0775	99.8899	100.068	200.042
11.08	99.89	100.067	200.043
11.0825	99.8902	100.067	200.043
11.085	99.8904	100.067	200.043
11.0875	99.8905	100.067	200.043
11.09	99.8907	100.066	200.043
11.0925	99.8909	100.066	200.043
11.095	99.891	100.066	200.043
11.0975	99.8912	100.065	200.043
11.1	99.8913	100.065	200.043
11.1025	99.8915	100.065	200.044
11.105	99.8917	100.065	200.044
11.1075	99.8918	100.064	200.044
11.11	99.892	100.064	200.044
11.1125	99.8922	100.064	200.044
11.115	99.8923	100.064	200.044
11.1175	99.8925	100.063	200.044
11.12	99.8927	100.063	200.044
11.1225	99.8928	100.063	200.044
11.125	99.893	100.063	200.044
11.1275	99.8932	100.062	200.045
11.13	99.8933	100.062	200.045
11.1325	99.8935	100.062	200.045
11.135	99.8937	100.061	200.045
11.1375	99.8938	100.061	200.045
11.14	99.894	100.061	200.045
11.1425	99.8942	100.061	200.045
11.145	99.8943	100.06	200.045
11.1475	99.8945	100.06	200.045
11.15	99.8947	100.06	200.045
11.1525	99.8948	100.06	200.046
11.155	99.895	100.059	200.046
11.1575	99.8952	100.059	200.046
11.16	99.8954	100.059	200.046
11.1625	99.8955	100.059	200.046
11.165	99.8957	100.058	200.046
11.1675	99.8959	100.058	200.046
11.17	99.8961	100.058	200.046
11.1725	99.8962	100.058	200.046
11.175	99.8964	100.057	200.046
11.1775	99.8966	100.057	200.046
11.18	99.8967	100.057	200.047
11.1825	99.8969	100.056	200.047
11.185	99.8971	100.056	200.047
11.1875	99.8973	100.056	200.047
11.19	99.8975	100.056	200.047
11.1925	99.8976	100.055	200.047
11.195	99.8978	100.055	200.047
11.1975	99.898	100.055	200.047
11.2	99.8982	100.055	200.047
11.2025	99.8983	100.054	200.047
11.205	99.8985	100.054	200.047
11.2075	99.8987	100.054	200.047
11.21	99.8989	100.054	200.047
11.2125	99.899	100.053	200.048
11.215	99.8992	100.053	200.048
11.2175	99.8994	100.053	200.048
11.22	99.8996	100.053	200.048
11.2225	99.8998	100.052	200.048
11.225	99.8999	100.052	200.048
11.2275	99.9001	100.052	200.048
11.23	99.9003	100.052	200.048
11.2325	99.9005	100.051	200.048
11.235	99.9007	100.051	200.048
11.2375	99.9008	100.051	200.048
11.24	99.901	100.051	200.048
11.2425	99.9012	100.05	200.048
11.245	99.9014	100.05	200.048
11.2475	99.9016	100.05	200.049
11.25	99.9018	100.05	200.049
11.2525	99.9019	100.049	200.049
11.255	99.9021	100.049	200.049
11.2575	99.9023	100.049	200.049
11.26	99.9025	100.049	200.049
11.2625	99.9027	100.048	200.049
11.265	99.9028	100.048	200.049
11.2675	99.903	100.048	200.049
11.27	99.9032	100.048	200.049
11.2725	99.9034	100.047	200.049
11.275	99.9036	100.047	200.049
11.2775	99.9038	100.047	200.049
11.28	99.904	100.047	200.049
11.2825	99.9041	100.047	200.049
11.285	99.9043	100.046	200.049
11.2875	99.9045	100.046	200.049
11.29	99.9047	100.046	200.049
11.2925	99.9049	100.046	200.05
11.295	99.9051	100.045	200.05
11.2975	99.9053	100.045	200.05
11.3	99.9054	100.045	200.05
11.3025	99.9056	100.045	200.05
11.305	99.9058	100.044	200.05
11.3075	99.906	100.044	200.05
11.31	99.9062	100.044	200.05
11.3125	99.9064	100.044	200.05
11.315	99.9066	100.043	200.05
11.3175	99.9067	100.043	200.05
11.32	99.9069	100.043	200.05
11.3225	99.9071	100.043	200.05
11.325	99.9073	100.043	200.05
11.3275	99.9075	100.042	200.05
11.33	99.9077	100.042	200.05
11.3325	99.9079	100.042	200.05
11.335	99.9081	100.042	200.05
11.3375	99.9083	100.041	200.05
11.34	99.9084	100.041	200.05
11.3425	99.9086	100.041	200.05
11.345	99.9088	100.041	200.051
11.3475	99.909	100.04	200.051
11.35	99.9092	100.04	200.051
11.3525	99.9094	100.04	200.051
11.355	99.9096	100.04	200.051
11.3575	99.9098	100.04	200.051
11.36	99.91	100.039	200.051
11.3625	99.9102	100.039	200.051
11.365	99.9103	100.039	200.051
11.3675	99.9105	100.039	200.051
11.37	99.9107	100.038	200.051
11.3725	99.9109	100.038	200.051
11.375	99.9111	100.038	200.051
11.3775	99.9113	100.038	200.051
11.38	99.9115	100.038	200.051
11.3825	99.9117	100.037	200.051
11.385	99.9119	100.037	200.051
11.3875	99.9121	100.037	200.051
11.39	99.9123	100.037	200.051
11.3925	99.9124	100.036	200.051
11.395	99.9126	100.036	200.051
11.3975	99.9128	100.036	200.051
11.4	99.913	100.036	200.051
11.4025	99.9132	100.036	200.051
11.405	99.9134	100.035	200.051
11.4075	99.9136	100.035	200.051
11.41	99.9138	100.035	200.051
11.4125	99.914	100.035	200.051
11.415	99.9142	100.034	200.051
11.4175	99.9144	100.034	200.051
11.42	99.9146	100.034	200.051
11.4225	99.9148	100.034	200.051
11.425	99.9149	100.034	200.051
11.4275	99.9151	100.033	200.051
11.43	99.9153	100.033	200.051
11.4325	99.9155	100.033	200.051
11.435	99.9157	100.033	200.052
11.4375	99.9159	100.033	200.052
11.44	99.9161	100.032	200.052
11.4425	99.9163	100.032	200.052
11.445	99.9165	100.032	200.052
11.4475	99.9167	100.032	200.052
11.45	99.9169	100.032	200.052
11.4525	99.9171	100.031	200.052
11.455	99.9173	100.031	200.052
11.4575	99.9175	100.031	200.052
11.46	99.9177	100.031	200.052
11.4625	99.9178	100.03	200.052
11.465	99.918	100.03	200.052
11.4675	99.9182	100.03	200.052
11.47	99.9184	100.03	200.052
11.4725	99.9186	100.03	200.052
11.475	99.9188	100.029	200.052
11.4775	99.919	100.029	200.052
11.48	99.9192	100.029	200.052
11.4825	99.9194	100.029	200.052
11.485	99.9196	100.029	200.052
11.4875	99.9198	100.028	200.052
11.49	99.92	100.028	200.052
11.4925	99.9202	100.028	200.052
11.495	99.9204	100.028	200.052
11.4975	99.9206	100.028	200.052
11.5	99.9208	100.027	200.052
11.5025	99.921	100.027	200.052
11.505	99.9211	100.027	200.052
11.5075	99.9213	100.027	200.052
11.51	99.9215	100.027	200.052
11.5125	99.9217	100.026	200.052
11.515	99.9219	100.026	200.052
11.5175	99.9221	100.026	200.052
11.52	99.9223	100.026	200.052
11.5225	99.9225	100.026	200.052
11.525	99.9227	100.026	200.052
11.5275	99.9229	100.025	200.052
11.53	99.9231	100.025	200.052
11.5325	99.9233	100.025	200.052
11.535	99.9235	100.025	200.052
11.5375	99.9237	100.025	200.052
11.54	99.9239	100.024	200.052
11.5425	99.9241	100.024	200.052
11.545	99.9243	100.024	200.052
11.5475	99.9245	100.024	200.052
11.55	99.9246	100.024	200.052
11.5525	99.9248	100.023	200.052
11.555	99.925	100.023	200.052
11.5575	99.9252	100.023	200.052
11.56	99.9254	100.023	200.052
11.5625	99.9256	100.023	200.052
11.565	99.9258	100.022	200.052
11.5675	99.926	100.022	200.052
11.57	99.9262	100.022	200.052
11.5725	99.9264	100.022	200.052
11.575	99.9266	100.022	200.052
11.5775	99.9268	100.022	200.052
11.58	99.927	100.021	200.052
11.5825	99.9272	100.021	200.052
11.585	99.9274	100.021	200.052
11.5875	99.9276	100.021	200.052
11.59	99.9277	100.021	200.052
11.5925	99.9279	100.02	200.052
11.595	99.9281	100.02	200.052
11.5975	99.9283	100.02	200.052
11.6	99.9285	100.02	200.052
11.6025	99.9287	100.02	200.052
11.605	99.9289	100.02	200.052
11.6075	99.9291	100.019	200.052
11.61	99.9293	100.019	200.051
11.6125	99.9295	100.019	200.051
11.615	99.9297	100.019	200.051
11.6175	99.9299	100.019	200.051
11.62	99.9301	100.019	200.051
11.6225	99.9303	100.018	200.051
11.625	99.9305	100.018	200.051
11.6275	99.9306	100.018	200.051
11.63	99.9308	100.018	200.051
11.6325	99.931	100.018	200.051
11.635	99.9312	100.017	200.051
11.6375	99.9314	100.017	200.051
11.64	99.9316	100.017	200.051
11.6425	99.9318	100.017	200.051
11.645	99.932	100.017	200.051
11.6475	99.9322	100.017	200.051
11.65	99.9324	100.016	200.051
11.6525	99.9326	100.016	200.051
11.655	99.9328	100.016	200.051
11.6575	99.933	100.016	200.051
11.66	99.9331	100.016	200.051
11.6625	99.9333	100.016	200.051
11.665	99.9335	100.015	200.051
11.6675	99.9337	100.015	200.051
11.67	99.9339	100.015	200.051
11.6725	99.9341	100.015	200.051
11.675	99.9343	100.015	200.051
11.6775	99.9345	100.015	200.051
11.68	99.9347	100.014	200.051
11.6825	99.9349	100.014	200.051
11.685	99.9351	100.014	200.051
11.6875	99.9352	100.014	200.051
11.69	99.9354	100.014	200.051
11.6925	99.9356	100.014	200.051
11.695	99.9358	100.013	200.051
11.6975	99.936	100.013	200.051
11.7	99.9362	100.013	200.051
11.7025	99.9364	100.013	200.051
11.705	99.9366	100.013	200.051
11.7075	99.9368	100.013	200.051
11.71	99.937	100.013	200.051
11.7125	99.9371	100.012	200.05
11.715	99.9373	100.012	200.05
11.7175	99.9375	100.012	200.05
11.72	99.9377	100.012	200.05
11.7225	99.9379	100.012	200.05
11.725	99.9381	100.012	200.05
11.7275	99.9383	100.011	200.05
11.73	99.9385	100.011	200.05
11.7325	99.9387	100.011	200.05
11.735	99.9388	100.011	200.05
11.7375	99.939	100.011	200.05
11.74	99.9392	100.011	200.05
11.7425	99.9394	100.011	200.05
11.745	99.9396	100.01	200.05
11.7475	99.9398	100.01	200.05
11.75	99.94	100.01	200.05
11.7525	99.9402	100.01	200.05
11.755	99.9403	100.01	200.05
11.7575	99.9405	100.01	200.05
11.76	99.9407	100.009	200.05
11.7625	99.9409	100.009	200.05
11.765	99.9411	100.009	200.05
11.7675	99.9413	100.009	200.05
11.77	99.9415	100.009	200.05
11.7725	99.9417	100.009	200.05
11.775	99.9418	100.009	200.05
11.7775	99.942	100.008	200.05
11.78	99.9422	100.008	200.049
11.7825	99.9424	100.008	200.049
11.785	99.9426	100.008	200.049
11.7875	99.9428	100.008	200.049
11.79	99.943	100.008	200.049
11.7925	99.9431	100.008	200.049
11.795	99.9433	100.007	200.049
11.7975	99.9435	100.007	200.049
11.8	99.9437	100.007	200.049
11.8025	99.9439	100.007	200.049
11.805	99.9441	100.007	200.049
11.8075	99.9442	100.007	200.049
11.81	99.9444	100.007	200.049
11.8125	99.9446	100.006	200.049
11.815	99.9448	100.006	200.049
11.8175	99.945	100.006	200.049
11.82	99.9452	100.006	200.049
11.8225	99.9453	100.006	200.049
11.825	99.9455	100.006	200.049
11.8275	99.9457	100.006	200.049
11.83	99.9459	100.005	200.049
11.8325	99.9461	100.005	200.049
11.835	99.9463	100.005	200.049
11.8375	99.9464	100.005	200.048
11.84	99.9466	100.005	200.048
11.8425	99.9468	100.005	200.048
11.845	99.947	100.005	200.048
11.8475	99.9472	100.005	200.048
11.85	99.9473	100.004	200.048
11.8525	99.9475	100.004	200.048
11.855	99.9477	100.004	200.048
11.8575	99.9479	100.004	200.048
11.86	99.9481	100.004	200.048
11.8625	99.9482	100.004	200.048
11.865	99.9484	100.004	200.048
11.8675	99.9486	100.004	200.048
11.87	99.9488	100.003	200.048
11.8725	99.949	100.003	200.048
11.875	99.9491	100.003	200.048
11.8775	99.9493	100.003	200.048
11.88	99.9495	100.003	200.048
11.8825	99.9497	100.003	200.048
11.885	99.9499	100.003	200.048
11.8875	99.95	100.003	200.047
11.89	99.9502	100.002	200.047
11.8925	99.9504	100.002	200.047
11.895	99.9506	100.002	200.047
11.8975	99.9507	100.002	200.047
11.9	99.9509	100.002	200.047
11.9025	99.9511	100.002	200.047
11.905	99.9513	100.002	200.047
11.9075	99.9515	100.002	200.047
11.91	99.9516	100.001	200.047
11.9125	99.9518	100.001	200.047
11.915	99.952	100.001	200.047
11.9175	99.9522	100.001	200.047
11.92	99.9523	100.001	200.047
11.9225	99.9525	100.001	200.047
11.925	99.9527	100.001	200.047
11.9275	99.9529	100.001	200.047
11.93	99.953	100	200.047
11.9325	99.9532	100	200.046
11.935	99.9534	100	200.046
11.9375	99.9536	100	200.046
11.94	99.9537	100	200.046
11.9425	99.9539	99.9999	200.046
11.945	99.9541	99.9997	200.046
11.9475	99.9542	99.9996	200.046
11.95	99.9544	99.9995	200.046
11.9525	99.9546	99.9994	200.046
11.955	99.9548	99.9993	200.046
11.9575	99.9549	99.9992	200.046
11.96	99.9551	99.9991	200.046
11.9625	99.9553	99.999	200.046
11.965	99.9555	99.9988	200.046
11.9675	99.9556	99.9987	200.046
11.97	99.9558	99.9986	200.046
11.9725	99.956	99.9985	200.046
11.975	99.9561	99.9984	200.045
11.9775	99.9563	99.9983	200.045
11.98	99.9565	99.9982	200.045
11.9825	99.9566	99.9981	200.045
11.985	99.9568	99.998	200.045
11.9875	99.957	99.9979	200.045
11.99	99.9572	99.9978	200.045
11.9925	99.9573	99.9976	200.045
11.995	99.9575	99.9975	200.045
11.9975	99.9577	99.9974	200.045
12	99.9578	99.9973	200.045
12.0025	99.958	99.9972	200.045
12.005	99.9582	99.9971	200.045
12.0075	99.9583	99.997	200.045
12.01	99.9585	99.9969	200.045
12.0125	99.9587	99.9968	200.045
12.015	99.9588	99.9967	200.044
12.0175	99.959	99.9966	200.044
12.02	99.9592	99.9965	200.044
12.0225	99.9593	99.9964	200.044
12.025	99.9595	99.9963	200.044
12.0275	99.9597	99.9962	200.044
12.03	99.9598	99.9961	200.044
12.0325	99.96	99.996	200.044
12.035	99.9602	99.9959	200.044
12.0375	99.9603	99.9958	200.044
12.04	99.9605	99.9957	200.044
12.0425	99.9607	99.9956	200.044
12.045	99.9608	99.9955	200.044
12.0475	99.961	99.9954	200.044
12.05	99.9611	99.9953	200.044
12.0525	99.9613	99.9952	200.043
12.055	99.9615	99.9951	200.043
12.0575	99.9616	99.995	200.043
12.06	99.9618	99.9949	200.043
12.0625	99.962	99.9948	200.043
12.065	99.9621	99.9947	200.043
12.0675	99.9623	99.9946	200.043
12.07	99.9624	99.9945	200.043
12.0725	99.9626	99.9944	200.043
12.075	99.9628	99.9944	200.043
12.0775	99.9629	99.9943	200.043
12.08	99.9631	99.9942	200.043
12.0825	99.9632	99.9941	200.043
12.085	99.9634	99.994	200.043
12.0875	99.9636	99.9939	200.043
12.09	99.9637	99.9938	200.042
12.0925	99.9639	99.9937	200.042
12.095	99.964	99.9936	200.042
12.0975	99.9642	99.9935	200.042
12.1	99.9644	99.9934	200.042
12.1025	99.9645	99.9934	200.042
12.105	99.9647	99.9933	200.042
12.1075	99.9648	99.9932	200.042
12.11	99.965	99.9931	200.042
12.1125	99.9651	99.993	200.042
12.115	99.9653	99.9929	200.042
12.1175	99.9655	99.9928	200.042
12.12	99.9656	99.9927	200.042
12.1225	99.9658	99.9927	200.042
12.125	99.9659	99.9926	200.042
12.1275	99.9661	99.9925	200.041
12.13	99.9662	99.9924	200.041
12.1325	99.9664	99.9923	200.041
12.135	99.9665	99.9922	200.041
12.1375	99.9667	99.9921	200.041
12.14	99.9669	99.9921	200.041
12.1425	99.967	99.992	200.041
12.145	99.9672	99.9919	200.041
12.1475	99.9673	99.9918	200.041
12.15	99.9675	99.9917	200.041
12.1525	99.9676	99.9917	200.041
12.155	99.9678	99.9916	200.041
12.1575	99.9679	99.9915	200.041
12.16	99.9681	99.9914	200.041
12.1625	99.9682	99.9913	200.04
12.165	99.9684	99.9913	200.04
12.1675	99.9685	99.9912	200.04
12.17	99.9687	99.9911	200.04
12.1725	99.9688	99.991	200.04
12.175	99.969	99.9909	200.04
12.1775	99.9691	99.9909	200.04
12.18	99.9693	99.9908	200.04
12.1825	99.9694	99.9907	200.04
12.185	99.9696	99.9906	200.04
12.1875	99.9697	99.9906	200.04
12.19	99.9699	99.9905	200.04
12.1925	99.97	99.9904	200.04
12.195	99.9702	99.9903	200.039
12.1975	99.9703	99.9903	200.039
12.2	99.9705	99.9902	200.039
12.2025	99.9706	99.9901	200.039
12.205	99.9708	99.99	200.039
12.2075	99.9709	99.99	200.039
12.21	99.9711	99.9899	200.039
12.2125	99.9712	99.9898	200.039
12.215	99.9714	99.9897	200.039
12.2175	99.9715	99.9897	200.039
12.22	99.9716	99.9896	200.039
12.2225	99.9718	99.9895	200.039
12.225	99.9719	99.9895	200.039
12.2275	99.9721	99.9894	200.039
12.23	99.9722	99.9893	200.038
12.2325	99.9724	99.9893	200.038
12.235	99.9725	99.9892	200.038
12.2375	99.9727	99.9891	200.038
12.24	99.9728	99.9891	200.038
12.2425	99.9729	99.989	200.038
12.245	99.9731	99.9889	200.038
12.2475	99.9732	99.9888	200.038
12.25	99.9734	99.9888	200.038
12.2525	99.9735	99.9887	200.038
12.255	99.9737	99.9886	200.038
12.2575	99.9738	99.9886	200.038
12.26	99.9739	99.9885	200.038
12.2625	99.9741	99.9885	200.037
12.265	99.9742	99.9884	200.037
12.2675	99.9744	99.9883	200.037
12.27	99.9745	99.9883	200.037
12.2725	99.9746	99.9882	200.037
12.275	99.9748	99.9881	200.037
12.2775	99.9749	99.9881	200.037
12.28	99.9751	99.988	200.037
12.2825	99.9752	99.9879	200.037
12.285	99.9753	99.9879	200.037
12.2875	99.9755	99.9878	200.037
12.29	99.9756	99.9878	200.037
12.2925	99.9757	99.9877	200.037
12.295	99.9759	99.9876	200.036
12.2975	99.976	99.9876	200.036
12.3	99.9762	99.9875	200.036
12.3025	99.9763	99.9875	200.036
12.305	99.9764	99.9874	200.036
12.3075	99.9766	99.9873	200.036
12.31	99.9767	99.9873	200.036
12.3125	99.9768	99.9872	200.036
12.315	99.977	99.9872	200.036
12.3175	99.9771	99.9871	200.036
12.32	99.9772	99.9871	200.036
12.3225	99.9774	99.987	200.036
12.325	99.9775	99.9869	200.036
12.3275	99.9776	99.9869	200.035
12.33	99.9778	99.9868	200.035
12.3325	99.9779	99.9868	200.035
12.335	99.978	99.9867	200.035
12.3375	99.9782	99.9867	200.035
12.34	99.9783	99.9866	200.035
12.3425	99.9784	99.9866	200.035
12.345	99.9786	99.9865	200.035
12.3475	99.9787	99.9864	200.035
12.35	99.9788	99.9864	200.035
12.3525	99.9789	99.9863	200.035
12.355	99.9791	99.9863	200.035
12.3575	99.9792	99.9862	200.035
12.36	99.9793	99.9862	200.034
12.3625	99.9795	99.9861	200.034
12.365	99.9796	99.9861	200.034
12.3675	99.9797	99.986	200.034
12.37	99.9799	99.986	200.034
12.3725	99.98	99.9859	200.034
12.375	99.9801	99.9859	200.034
12.3775	99.9802	99.9858	200.034
12.38	99.9804	99.9858	200.034
12.3825	99.9805	99.9857	200.034
12.385	99.9806	99.9857	200.034
12.3875	99.9807	99.9856	200.034
12.39	99.9809	99.9856	200.034
12.3925	99.981	99.9855	200.033
12.395	99.9811	99.9855	200.033
12.3975	99.9812	99.9854	200.033
12.4	99.9814	99.9854	200.033
12.4025	99.9815	99.9854	200.033
12.405	99.9816	99.9853	200.033
12.4075	99.9817	99.9853	200.033
12.41	99.9819	99.9852	200.033
12.4125	99.982	99.9852	200.033
12.415	99.9821	99.9851	200.033
12.4175	99.9822	99.9851	200.033
12.42	99.9824	99.985	200.033
12.4225	99.9825	99.985	200.033
12.425	99.9826	99.985	200.032
12.4275	99.9827	99.9849	200.032
12.43	99.9828	99.9849	200.032
12.4325	99.983	99.9848	200.032
12.435	99.9831	99.9848	200.032
12.4375	99.9832	99.9847	200.032
12.44	99.9833	99.9847	200.032
12.4425	99.9834	99.9847	200.032
12.445	99.9836	99.9846	200.032
12.4475	99.9837	99.9846	200.032
12.45	99.9838	99.9845	200.032
12.4525	99.9839	99.9845	200.032
12.455	99.984	99.9845	200.032
12.4575	99.9842	99.9844	200.031
12.46	99.9843	99.9844	200.031
12.4625	99.9844	99.9843	200.031
12.465	99.9845	99.9843	200.031
12.4675	99.9846	99.9843	200.031
12.47	99.9847	99.9842	200.031
12.4725	99.9849	99.9842	200.031
12.475	99.985	99.9841	200.031
12.4775	99.9851	99.9841	200.031
12.48	99.9852	99.9841	200.031
12.4825	99.9853	99.984	200.031
12.485	99.9854	99.984	200.031
12.4875	99.9856	99.984	200.03
12.49	99.9857	99.9839	200.03
12.4925	99.9858	99.9839	200.03
12.495	99.9859	99.9838	200.03
12.4975	99.986	99.9838	200.03
12.5	99.9861	99.9838	200.03
12.5025	99.9862	99.9837	200.03
12.505	99.9863	99.9837	200.03
12.5075	99.9865	99.9837	200.03
12.51	99.9866	99.9836	200.03
12.5125	99.9867	99.9836	200.03
12.515	99.9868	99.9836	200.03
12.5175	99.9869	99.9835	200.03
12.52	99.987	99.9835	200.029
12.5225	99.9871	99.9835	200.029
12.525	99.9872	99.9834	200.029
12.5275	99.9873	99.9834	200.029
12.53	99.9875	99.9834	200.029
12.5325	99.9876	99.9834	200.029
12.535	99.9877	99.9833	200.029
12.5375	99.9878	99.9833	200.029
12.54	99.9879	99.9833	200.029
12.5425	99.988	99.9832	200.029
12.545	99.9881	99.9832	200.029
12.5475	99.9882	99.9832	200.029
12.55	99.9883	99.9831	200.029
12.5525	99.9884	99.9831	200.028
12.555	99.9885	99.9831	200.028
12.5575	99.9886	99.9831	200.028
12.56	99.9887	99.983	200.028
12.5625	99.9888	99.983	200.028
12.565	99.989	99.983	200.028
12.5675	99.9891	99.9829	200.028
12.57	99.9892	99.9829	200.028
12.5725	99.9893	99.9829	200.028
12.575	99.9894	99.9829	200.028
12.5775	99.9895	99.9828	200.028
12.58	99.9896	99.9828	200.028
12.5825	99.9897	99.9828	200.028
12.585	99.9898	99.9828	200.027
12.5875	99.9899	99.9827	200.027
12.59	99.99	99.9827	200.027
12.5925	99.9901	99.9827	200.027
12.595	99.9902	99.9827	200.027
12.5975	99.9903	99.9826	200.027
12.6	99.9904	99.9826	200.027
12.6025	99.9905	99.9826	200.027
12.605	99.9906	99.9826	200.027
12.6075	99.9907	99.9825	200.027
12.61	99.9908	99.9825	200.027
12.6125	99.9909	99.9825	200.027
12.615	99.991	99.9825	200.027
12.6175	99.9911	99.9824	200.026
12.62	99.9912	99.9824	200.026
12.6225	99.9913	99.9824	200.026
12.625	99.9914	99.9824	200.026
12.6275	99.9915	99.9824	200.026
12.63	99.9916	99.9823	200.026
12.6325	99.9917	99.9823	200.026
12.635	99.9918	99.9823	200.026
12.6375	99.9919	99.9823	200.026
12.64	99.992	99.9823	200.026
12.6425	99.9921	99.9822	200.026
12.645	99.9922	99.9822	200.026
12.6475	99.9923	99.9822	200.026
12.65	99.9924	99.9822	200.025
12.6525	99.9925	99.9822	200.025
12.655	99.9926	99.9821	200.025
12.6575	99.9927	99.9821	200.025
12.66	99.9927	99.9821	200.025
12.6625	99.9928	99.9821	200.025
12.665	99.9929	99.9821	200.025
12.6675	99.993	99.9821	200.025
12.67	99.9931	99.982	200.025
12.6725	99.9932	99.982	200.025
12.675	99.9933	99.982	200.025
12.6775	99.9934	99.982	200.025
12.68	99.9935	99.982	200.025
12.6825	99.9936	99.982	200.024
12.685	99.9937	99.9819	200.024
12.6875	99.9938	99.9819	200.024
12.69	99.9939	99.9819	200.024
12.6925	99.9939	99.9819	200.024
12.695	99.994	99.9819	200.024
12.6975	99.9941	99.9819	200.024
12.7	99.9942	99.9818	200.024
12.7025	99.9943	99.9818	200.024
12.705	99.9944	99.9818	200.024
12.7075	99.9945	99.9818	200.024
12.71	99.9946	99.9818	200.024
12.7125	99.9947	99.9818	200.024
12.715	99.9948	99.9818	200.023
12.7175	99.9948	99.9817	200.023
12.72	99.9949	99.9817	200.023
12.7225	99.995	99.9817	200.023
12.725	99.9951	99.9817	200.023
12.7275	99.9952	99.9817	200.023
12.73	99.9953	99.9817	200.023
12.7325	99.9954	99.9817	200.023
12.735	99.9954	99.9817	200.023
12.7375	99.9955	99.9817	200.023
12.74	99.9956	99.9816	200.023
12.7425	99.9957	99.9816	200.023
12.745	99.9958	99.9816	200.023
12.7475	99.9959	99.9816	200.023
12.75	99.996	99.9816	200.022
12.7525	99.996	99.9816	200.022
12.755	99.9961	99.9816	200.022
12.7575	99.9962	99.9816	200.022
12.76	99.9963	99.9816	200.022
12.7625	99.9964	99.9816	200.022
12.765	99.9965	99.9815	200.022
12.7675	99.9965	99.9815	200.022
12.77	99.9966	99.9815	200.022
12.7725	99.9967	99.9815	200.022
12.775	99.9968	99.9815	200.022
12.7775	99.9969	99.9815	200.022
12.78	99.9969	99.9815	200.022
12.7825	99.997	99.9815	200.021
12.785	99.9971	99.9815	200.021
12.7875	99.9972	99.9815	200.021
12.79	99.9973	99.9815	200.021
12.7925	99.9973	99.9815	200.021
12.795	99.9974	99.9815	200.021
12.7975	99.9975	99.9814	200.021
12.8	99.9976	99.9814	200.021
12.8025	99.9977	99.9814	200.021
12.805	99.9977	99.9814	200.021
12.8075	99.9978	99.9814	200.021
12.81	99.9979	99.9814	200.021
12.8125	99.998	99.9814	200.021
12.815	99.9981	99.9814	200.021
12.8175	99.9981	99.9814	200.02
12.82	99.9982	99.9814	200.02
12.8225	99.9983	99.9814	200.02
12.825	99.9984	99.9814	200.02
12.8275	99.9984	99.9814	200.02
12.83	99.9985	99.9814	200.02
12.8325	99.9986	99.9814	200.02
12.835	99.9987	99.9814	200.02
12.8375	99.9987	99.9814	200.02
12.84	99.9988	99.9814	200.02
12.8425	99.9989	99.9814	200.02
12.845	99.999	99.9814	200.02
12.8475	99.999	99.9814	200.02
12.85	99.9991	99.9814	200.02
12.8525	99.9992	99.9814	200.019
12.855	99.9993	99.9814	200.019
12.8575	99.9993	99.9814	200.019
12.86	99.9994	99.9813	200.019
12.8625	99.9995	99.9813	200.019
12.865	99.9995	99.9813	200.019
12.8675	99.9996	99.9813	200.019
12.87	99.9997	99.9813	200.019
12.8725	99.9998	99.9813	200.019
12.875	99.9998	99.9813	200.019
12.8775	99.9999	99.9813	200.019
12.88	100	99.9813	200.019
12.8825	100	99.9813	200.019
12.885	100	99.9813	200.019
12.8875	100	99.9813	200.018
12.89	100	99.9813	200.018
12.8925	100	99.9813	200.018
12.895	100	99.9813	200.018
12.8975	100	99.9813	200.018
12.9	100.001	99.9813	200.018
12.9025	100.001	99.9813	200.018
12.905	100.001	99.9814	200.018
12.9075	100.001	99.9814	200.018
12.91	100.001	99.9814	200.018
12.9125	100.001	99.9814	200.018
12.915	100.001	99.9814	200.018
12.9175	100.001	99.9814	200.018
12.92	100.001	99.9814	200.018
12.9225	100.001	99.9814	200.018
12.925	100.001	99.9814	200.017
12.9275	100.001	99.9814	200.017
12.93	100.001	99.9814	200.017
12.9325	100.001	99.9814	200.017
12.935	100.001	99.9814	200.017
12.9375	100.002	99.9814	200.017
12.94	100.002	99.9814	200.017
12.9425	100.002	99.9814	200.017
12.945	100.002	99.9814	200.017
12.9475	100.002	99.9814	200.017
12.95	100.002	99.9814	200.017
12.9525	100.002	99.9814	200.017
12.955	100.002	99.9814	200.017
12.9575	100.002	99.9814	200.017
12.96	100.002	99.9814	200.016
12.9625	100.002	99.9814	200.016
12.965	100.002	99.9814	200.016
12.9675	100.002	99.9814	200.016
12.97	100.002	99.9814	200.016
12.9725	100.002	99.9815	200.016
12.975	100.002	99.9815	200.016
12.9775	100.003	99.9815	200.016
12.98	100.003	99.9815	200.016
12.9825	100.003	99.9815	200.016
12.985	100.003	99.9815	200.016
12.9875	100.003	99.9815	200.016
12.99	100.003	99.9815	200.016
12.9925	100.003	99.9815	200.016
12.995	100.003	99.9815	200.016
12.9975	100.003	99.9815	200.016
13	100.003	99.9815	200.015
13.0025	100.003	99.9815	200.015
13.005	100.003	99.9815	200.015
13.0075	100.003	99.9816	200.015
13.01	100.003	99.9816	200.015
13.0125	100.003	99.9816	200.015
13.015	100.003	99.9816	200.015
13.0175	100.003	99.9816	200.015
13.02	100.003	99.9816	200.015
13.0225	100.004	99.9816	200.015
13.025	100.004	99.9816	200.015
13.0275	100.004	99.9816	200.015
13.03	100.004	99.9816	200.015
13.0325	100.004	99.9816	200.015
13.035	100.004	99.9816	200.015
13.0375	100.004	99.9817	200.014
13.04	100.004	99.9817	200.014
13.0425	100.004	99.9817	200.014
13.045	100.004	99.9817	200.014
13.0475	100.004	99.9817	200.014
13.05	100.004	99.9817	200.014
13.0525	100.004	99.9817	200.014
13.055	100.004	99.9817	200.014
13.0575	100.004	99.9817	200.014
13.06	100.004	99.9818	200.014
13.0625	100.004	99.9818	200.014
13.065	100.004	99.9818	200.014
13.0675	100.005	99.9818	200.014
13.07	100.005	99.9818	200.014
13.0725	100.005	99.9818	200.014
13.075	100.005	99.9818	200.014
13.0775	100.005	99.9818	200.013
13.08	100.005	99.9818	200.013
13.0825	100.005	99.9819	200.013
13.085	100.005	99.9819	200.013
13.0875	100.005	99.9819	200.013
13.09	100.005	99.9819	200.013
13.0925	100.005	99.9819	200.013
13.095	100.005	99.9819	200.013
13.0975	100.005	99.9819	200.013
13.1	100.005	99.9819	200.013
13.1025	100.005	99.982	200.013
13.105	100.005	99.982	200.013
13.1075	100.005	99.982	200.013
13.11	100.005	99.982	200.013
13.1125	100.005	99.982	200.013
13.115	100.005	99.982	200.013
13.1175	100.005	99.982	200.012
13.12	100.006	99.982	200.012
13.1225	100.006	99.9821	200.012
13.125	100.006	99.9821	200.012
13.1275	100.006	99.9821	200.012
13.13	100.006	99.9821	200.012
13.1325	100.006	99.9821	200.012
13.135	100.006	99.9821	200.012
13.1375	100.006	99.9821	200.012
13.14	100.006	99.9822	200.012
13.1425	100.006	99.9822	200.012
13.145	100.006	99.9822	200.012
13.1475	100.006	99.9822	200.012
13.15	100.006	99.9822	200.012
13.1525	100.006	99.9822	200.012
13.155	100.006	99.9823	200.012
13.1575	100.006	99.9823	200.012
13.16	100.006	99.9823	200.011
13.1625	100.006	99.9823	200.011
13.165	100.006	99.9823	200.011
13.1675	100.006	99.9823	200.011
13.17	100.006	99.9823	200.011
13.1725	100.006	99.9824	200.011
13.175	100.007	99.9824	200.011
13.1775	100.007	99.9824	200.011
13.18	100.007	99.9824	200.011
13.1825	100.007	99.9824	200.011
13.185	100.007	99.9824	200.011
13.1875	100.007	99.9825	200.011
13.19	100.007	99.9825	200.011
13.1925	100.007	99.9825	200.011
13.195	100.007	99.9825	200.011
13.1975	100.007	99.9825	200.011
13.2	100.007	99.9825	200.011
13.2025	100.007	99.9826	200.01
13.205	100.007	99.9826	200.01
13.2075	100.007	99.9826	200.01
13.21	100.007	99.9826	200.01
13.2125	100.007	99.9826	200.01
13.215	100.007	99.9827	200.01
13.2175	100.007	99.9827	200.01
13.22	100.007	99.9827	200.01
13.2225	100.007	99.9827	200.01
13.225	100.007	99.9827	200.01
13.2275	100.007	99.9827	200.01
13.23	100.007	99.9828	200.01
13.2325	100.007	99.9828	200.01
13.235	100.007	99.9828	200.01
13.2375	100.007	99.9828	200.01
13.24	100.008	99.9828	200.01
13.2425	100.008	99.9829	200.01
13.245	100.008	99.9829	200.01
13.2475	100.008	99.9829	200.009
13.25	100.008	99.9829	200.009
13.2525	100.008	99.9829	200.009
13.255	100.008	99.983	200.009
13.2575	100.008	99.983	200.009
13.26	100.008	99.983	200.009
13.2625	100.008	99.983	200.009
13.265	100.008	99.983	200.009
13.2675	100.008	99.983	200.009
13.27	100.008	99.9831	200.009
13.2725	100.008	99.9831	200.009
13.275	100.008	99.9831	200.009
13.2775	100.008	99.9831	200.009
13.28	100.008	99.9831	200.009
13.2825	100.008	99.9832	200.009
13.285	100.008	99.9832	200.009
13.2875	100.008	99.9832	200.009
13.29	100.008	99.9832	200.009
13.2925	100.008	99.9832	200.009
13.295	100.008	99.9833	200.008
13.2975	100.008	99.9833	200.008
13.3	100.008	99.9833	200.008
13.3025	100.008	99.9833	200.008
13.305	100.008	99.9834	200.008
13.3075	100.008	99.9834	200.008
13.31	100.008	99.9834	200.008
13.3125	100.008	99.9834	200.008
13.315	100.009	99.9834	200.008
13.3175	100.009	99.9835	200.008
13.32	100.009	99.9835	200.008
13.3225	100.009	99.9835	200.008
13.325	100.009	99.9835	200.008
13.3275	100.009	99.9835	200.008
13.33	100.009	99.9836	200.008
13.3325	100.009	99.9836	200.008
13.335	100.009	99.9836	200.008
13.3375	100.009	99.9836	200.008
13.34	100.009	99.9837	200.008
13.3425	100.009	99.9837	200.007
13.345	100.009	99.9837	200.007
13.3475	100.009	99.9837	200.007
13.35	100.009	99.9837	200.007
13.3525	100.009	99.9838	200.007
13.355	100.009	99.9838	200.007
13.3575	100.009	99.9838	200.007
13.36	100.009	99.9838	200.007
13.3625	100.009	99.9839	200.007
13.365	100.009	99.9839	200.007
13.3675	100.009	99.9839	200.007
13.37	100.009	99.9839	200.007
13.3725	100.009	99.9839	200.007
13.375	100.009	99.984	200.007
13.3775	100.009	99.984	200.007
13.38	100.009	99.984	200.007
13.3825	100.009	99.984	200.007
13.385	100.009	99.9841	200.007
13.3875	100.009	99.9841	200.007
13.39	100.009	99.9841	200.007
13.3925	100.009	99.9841	200.007
13.395	100.009	99.9842	200.006
13.3975	100.009	99.9842	200.006
13.4	100.009	99.9842	200.006
13.4025	100.009	99.9842	200.006
13.405	100.009	99.9842	200.006
13.4075	100.01	99.9843	200.006
13.41	100.01	99.9843	200.006
13.4125	100.01	99.9843	200.006
13.415	100.01	99.9843	200.006
13.4175	100.01	99.9844	200.006
13.42	100.01	99.9844	200.006
13.4225	100.01	99.9844	200.006
13.425	100.01	99.9844	200.006
13.4275	100.01	99.9845	200.006
13.43	100.01	99.9845	200.006
13.4325	100.01	99.9845	200.006
13.435	100.01	99.9845	200.006
13.4375	100.01	99.9846	200.006
13.44	100.01	99.9846	200.006
13.4425	100.01	99.9846	200.006
13.445	100.01	99.9846	200.006
13.4475	100.01	99.9847	200.005
13.45	100.01	99.9847	200.005
13.4525	100.01	99.9847	200.005
13.455	100.01	99.9847	200.005
13.4575	100.01	99.9848	200.005
13.46	100.01	99.9848	200.005
13.4625	100.01	99.9848	200.005
13.465	100.01	99.9848	200.005
13.4675	100.01	99.9849	200.005
13.47	100.01	99.9849	200.005
13.4725	100.01	99.9849	200.005
13.475	100.01	99.9849	200.005
13.4775	100.01	99.985	200.005
13.48	100.01	99.985	200.005
13.4825	100.01	99.985	200.005
13.485	100.01	99.985	200.005
13.4875	100.01	99.9851	200.005
13.49	100.01	99.9851	200.005
13.4925	100.01	99.9851	200.005
13.495	100.01	99.9851	200.005
13.4975	100.01	99.9852	200.005
13.5	100.01	99.9852	200.005
13.5025	100.01	99.9852	200.005
13.505	100.01	99.9852	200.004
13.5075	100.01	99.9853	200.004
13.51	100.01	99.9853	200.004
13.5125	100.01	99.9853	200.004
13.515	100.01	99.9853	200.004
13.5175	100.01	99.9854	200.004
13.52	100.01	99.9854	200.004
13.5225	100.01	99.9854	200.004
13.525	100.01	99.9854	200.004
13.5275	100.01	99.9855	200.004
13.53	100.01	99.9855	200.004
13.5325	100.01	99.9855	200.004
13.535	100.01	99.9856	200.004
13.5375	100.01	99.9856	200.004
13.54	100.011	99.9856	200.004
13.5425	100.011	99.9856	200.004
13.545	100.011	99.9857	200.004
13.5475	100.011	99.9857	200.004
13.55	100.011	99.9857	200.004
13.5525	100.011	99.9857	200.004
13.555	100.011	99.9858	200.004
13.5575	100.011	99.9858	200.004
13.56	100.011	99.9858	200.004
13.5625	100.011	99.9858	200.004
13.565	100.011	99.9859	200.003
13.5675	100.011	99.9859	200.003
13.57	100.011	99.9859	200.003
13.5725	100.011	99.9859	200.003
13.575	100.011	99.986	200.003
13.5775	100.011	99.986	200.003
13.58	100.011	99.986	200.003
13.5825	100.011	99.9861	200.003
13.585	100.011	99.9861	200.003
13.5875	100.011	99.9861	200.003
13.59	100.011	99.9861	200.003
13.5925	100.011	99.9862	200.003
13.595	100.011	99.9862	200.003
13.5975	100.011	99.9862	200.003
13.6	100.011	99.9862	200.003
13.6025	100.011	99.9863	200.003
13.605	100.011	99.9863	200.003
13.6075	100.011	99.9863	200.003
13.61	100.011	99.9864	200.003
13.6125	100.011	99.9864	200.003
13.615	100.011	99.9864	200.003
13.6175	100.011	99.9864	200.003
13.62	100.011	99.9865	200.003
13.6225	100.011	99.9865	200.003
13.625	100.011	99.9865	200.003
13.6275	100.011	99.9865	200.003
13.63	100.011	99.9866	200.002
13.6325	100.011	99.9866	200.002
13.635	100.011	99.9866	200.002
13.6375	100.011	99.9867	200.002
13.64	100.011	99.9867	200.002
13.6425	100.011	99.9867	200.002
13.645	100.011	99.9867	200.002
13.6475	100.011	99.9868	200.002
13.65	100.011	99.9868	200.002
13.6525	100.011	99.9868	200.002
13.655	100.011	99.9868	200.002
13.6575	100.011	99.9869	200.002
13.66	100.011	99.9869	200.002
13.6625	100.011	99.9869	200.002
13.665	100.011	99.987	200.002
13.6675	100.011	99.987	200.002
13.67	100.011	99.987	200.002
13.6725	100.011	99.987	200.002
13.675	100.011	99.9871	200.002
13.6775	100.011	99.9871	200.002
13.68	100.011	99.9871	200.002
13.6825	100.011	99.9871	200.002
13.685	100.011	99.9872	200.002
13.6875	100.011	99.9872	200.002
13.69	100.011	99.9872	200.002
13.6925	100.011	99.9873	200.002
13.695	100.011	99.9873	200.002
13.6975	100.011	99.9873	200.002
13.7	100.011	99.9873	200.002
13.7025	100.011	99.9874	200.001
13.705	100.011	99.9874	200.001
13.7075	100.011	99.9874	200.001
13.71	100.011	99.9875	200.001
13.7125	100.011	99.9875	200.001
13.715	100.011	99.9875	200.001
13.7175	100.011	99.9875	200.001
13.72	100.011	99.9876	200.001
13.7225	100.011	99.9876	200.001
13.725	100.011	99.9876	200.001
13.7275	100.011	99.9876	200.001
13.73	100.011	99.9877	200.001
13.7325	100.011	99.9877	200.001
13.735	100.011	99.9877	200.001
13.7375	100.011	99.9878	200.001
13.74	100.011	99.9878	200.001
13.7425	100.011	99.9878	200.001
13.745	100.011	99.9878	200.001
13.7475	100.011	99.9879	200.001
13.75	100.011	99.9879	200.001
13.7525	100.011	99.9879	200.001
13.755	100.011	99.988	200.001
13.7575	100.011	99.988	200.001
13.76	100.011	99.988	200.001
13.7625	100.011	99.988	200.001
13.765	100.011	99.9881	200.001
13.7675	100.011	99.9881	200.001
13.77	100.011	99.9881	200.001
13.7725	100.011	99.9882	200.001
13.775	100.011	99.9882	200.001
13.7775	100.011	99.9882	200.001
13.78	100.011	99.9882	200
13.7825	100.011	99.9883	200
13.785	100.011	99.9883	200
13.7875	100.011	99.9883	200
13.79	100.011	99.9884	200
13.7925	100.011	99.9884	200
13.795	100.011	99.9884	200
13.7975	100.011	99.9884	200
13.8	100.011	99.9885	200
13.8025	100.011	99.9885	200
13.805	100.011	99.9885	200
13.8075	100.011	99.9885	200
13.81	100.011	99.9886	200
13.8125	100.011	99.9886	200
13.815	100.011	99.9886	200
13.8175	100.011	99.9887	200
13.82	100.011	99.9887	200
13.8225	100.011	99.9887	200
13.825	100.011	99.9887	200
13.8275	100.011	99.9888	200
13.83	100.011	99.9888	200
13.8325	100.011	99.9888	200
13.835	100.011	99.9889	200
13.8375	100.011	99.9889	200
13.84	100.011	99.9889	200
13.8425	100.011	99.9889	200
13.845	100.011	99.989	200
13.8475	100.011	99.989	200
13.85	100.011	99.989	200
13.8525	100.011	99.9891	200
13.855	100.011	99.9891	200
13.8575	100.011	99.9891	200
13.86	100.011	99.9891	200
13.8625	100.011	99.9892	200
13.865	100.011	99.9892	200
13.8675	100.011	99.9892	200
13.87	100.011	99.9893	199.999
13.8725	100.011	99.9893	199.999
13.875	100.011	99.9893	199.999
13.8775	100.011	99.9893	199.999
13.88	100.011	99.9894	199.999
13.8825	100.011	99.9894	199.999
13.885	100.011	99.9894	199.999
13.8875	100.011	99.9895	199.999
13.89	100.011	99.9895	199.999
13.8925	100.011	99.9895	199.999
13.895	100.011	99.9895	199.999
13.8975	100.011	99.9896	199.999
13.9	100.011	99.9896	199.999
13.9025	100.011	99.9896	199.999
13.905	100.011	99.9896	199.999
13.9075	100.011	99.9897	199.999
13.91	100.011	99.9897	199.999
13.9125	100.011	99.9897	199.999
13.915	100.011	99.9898	199.999
13.9175	100.011	99.9898	199.999
13.92	100.011	99.9898	199.999
13.9225	100.011	99.9898	199.999
13.925	100.011	99.9899	199.999
13.9275	100.011	99.9899	199.999
13.93	100.011	99.9899	199.999
13.9325	100.011	99.99	199.999
13.935	100.011	99.99	199.999
13.9375	100.011	99.99	199.999
13.94	100.011	99.99	199.999
13.9425	100.011	99.9901	199.999
13.945	100.011	99.9901	199.999
13.9475	100.011	99.9901	199.999
13.95	100.011	99.9902	199.999
13.9525	100.011	99.9902	199.999
13.955	100.011	99.9902	199.999
13.9575	100.011	99.9902	199.999
13.96	100.011	99.9903	199.999
13.9625	100.011	99.9903	199.999
13.965	100.011	99.9903	199.999
13.9675	100.011	99.9903	199.999
13.97	100.011	99.9904	199.999
13.9725	100.011	99.9904	199.998
13.975	100.011	99.9904	199.998
13.9775	100.011	99.9905	199.998
13.98	100.011	99.9905	199.998
13.9825	100.011	99.9905	199.998
13.985	100.011	99.9905	199.998
13.9875	100.011	99.9906	199.998
13.99	100.011	99.9906	199.998
13.9925	100.011	99.9906	199.998
13.995	100.011	99.9906	199.998
13.9975	100.011	99.9907	199.998
14	100.011	99.9907	199.998
14.0025	100.011	99.9907	199.998
14.005	100.011	99.9908	199.998
14.0075	100.011	99.9908	199.998
14.01	100.011	99.9908	199.998
14.0125	100.011	99.9908	199.998
14.015	100.011	99.9909	199.998
14.0175	100.011	99.9909	199.998
14.02	100.011	99.9909	199.998
14.0225	100.011	99.991	199.998
14.025	100.011	99.991	199.998
14.0275	100.011	99.991	199.998
14.03	100.011	99.991	199.998
14.0325	100.011	99.9911	199.998
14.035	100.011	99.9911	199.998
14.0375	100.011	99.9911	199.998
14.04	100.011	99.9911	199.998
14.0425	100.011	99.9912	199.998
14.045	100.011	99.9912	199.998
14.0475	100.011	99.9912	199.998
14.05	100.011	99.9913	199.998
14.0525	100.011	99.9913	199.998
14.055	100.011	99.9913	199.998
14.0575	100.011	99.9913	199.998
14.06	100.011	99.9914	199.998
14.0625	100.011	99.9914	199.998
14.065	100.011	99.9914	199.998
14.0675	100.011	99.9914	199.998
14.07	100.011	99.9915	199.998
14.0725	100.011	99.9915	199.998
14.075	100.011	99.9915	199.998
14.0775	100.011	99.9916	199.998
14.08	100.011	99.9916	199.998
14.0825	100.011	99.9916	199.998
14.085	100.011	99.9916	199.998
14.0875	100.011	99.9917	199.998
14.09	100.011	99.9917	199.998
14.0925	100.011	99.9917	199.998
14.095	100.011	99.9917	199.998
14.0975	100.011	99.9918	199.998
14.1	100.011	99.9918	199.997
14.1025	100.011	99.9918	199.997
14.105	100.011	99.9918	199.997
14.1075	100.011	99.9919	199.997
14.11	100.011	99.9919	199.997
14.1125	100.011	99.9919	199.997
14.115	100.011	99.992	199.997
14.1175	100.011	99.992	199.997
14.12	100.011	99.992	199.997
14.1225	100.011	99.992	199.997
14.125	100.011	99.9921	199.997
14.1275	100.011	99.9921	199.997
14.13	100.011	99.9921	199.997
14.1325	100.011	99.9921	199.997
14.135	100.011	99.9922	199.997
14.1375	100.011	99.9922	199.997
14.14	100.011	99.9922	199.997
14.1425	100.011	99.9922	199.997
14.145	100.011	99.9923	199.997
14.1475	100.011	99.9923	199.997
14.15	100.011	99.9923	199.997
14.1525	100.011	99.9924	199.997
14.155	100.01	99.9924	199.997
14.1575	100.01	99.9924	199.997
14.16	100.01	99.9924	199.997
14.1625	100.01	99.9925	199.997
14.165	100.01	99.9925	199.997
14.1675	100.01	99.9925	199.997
14.17	100.01	99.9925	199.997
14.1725	100.01	99.9926	199.997
14.175	100.01	99.9926	199.997
14.1775	100.01	99.9926	199.997
14.18	100.01	99.9926	199.997
14.1825	100.01	99.9927	199.997
14.185	100.01	99.9927	199.997
14.1875	100.01	99.9927	199.997
14.19	100.01	99.9927	199.997
14.1925	100.01	99.9928	199.997
14.195	100.01	99.9928	199.997
14.1975	100.01	99.9928	199.997
14.2	100.01	99.9928	199.997
14.2025	100.01	99.9929	199.997
14.205	100.01	99.9929	199.997
14.2075	100.01	99.9929	199.997
14.21	100.01	99.9929	199.997
14.2125	100.01	99.993	199.997
14.215	100.01	99.993	199.997
14.2175	100.01	99.993	199.997
14.22	100.01	99.993	199.997
14.2225	100.01	99.9931	199.997
14.225	100.01	99.9931	199.997
14.2275	100.01	99.9931	199.997
14.23	100.01	99.9932	199.997
14.2325	100.01	99.9932	199.997
14.235	100.01	99.9932	199.997
14.2375	100.01	99.9932	199.997
14.24	100.01	99.9933	199.997
14.2425	100.01	99.9933	199.997
14.245	100.01	99.9933	199.997
14.2475	100.01	99.9933	199.997
14.25	100.01	99.9934	199.997
14.2525	100.01	99.9934	199.997
14.255	100.01	99.9934	199.997
14.2575	100.01	99.9934	199.997
14.26	100.01	99.9935	199.997
14.2625	100.01	99.9935	199.997
14.265	100.01	99.9935	199.997
14.2675	100.01	99.9935	199.997
14.27	100.01	99.9936	199.997
14.2725	100.01	99.9936	199.996
14.275	100.01	99.9936	199.996
14.2775	100.01	99.9936	199.996
14.28	100.01	99.9937	199.996
14.2825	100.01	99.9937	199.996
14.285	100.01	99.9937	199.996
14.2875	100.01	99.9937	199.996
14.29	100.01	99.9938	199.996
14.2925	100.01	99.9938	199.996
14.295	100.01	99.9938	199.996
14.2975	100.01	99.9938	199.996
14.3	100.01	99.9938	199.996
14.3025	100.01	99.9939	199.996
14.305	100.01	99.9939	199.996
14.3075	100.01	99.9939	199.996
14.31	100.01	99.9939	199.996
14.3125	100.01	99.994	199.996
14.315	100.01	99.994	199.996
14.3175	100.01	99.994	199.996
14.32	100.01	99.994	199.996
14.3225	100.01	99.9941	199.996
14.325	100.01	99.9941	199.996
14.3275	100.01	99.9941	199.996
14.33	100.01	99.9941	199.996
14.3325	100.01	99.9942	199.996
14.335	100.01	99.9942	199.996
14.3375	100.01	99.9942	199.996
14.34	100.01	99.9942	199.996
14.3425	100.01	99.9943	199.996
14.345	100.01	99.9943	199.996
14.3475	100.01	99.9943	199.996
14.35	100.01	99.9943	199.996
14.3525	100.009	99.9944	199.996
14.355	100.009	99.9944	199.996
14.3575	100.009	99.9944	199.996
14.36	100.009	99.9944	199.996
14.3625	100.009	99.9944	199.996
14.365	100.009	99.9945	199.996
14.3675	100.009	99.9945	199.996
14.37	100.009	99.9945	199.996
14.3725	100.009	99.9945	199.996
14.375	100.009	99.9946	199.996
14.3775	100.009	99.9946	199.996
14.38	100.009	99.9946	199.996
14.3825	100.009	99.9946	199.996
14.385	100.009	99.9947	199.996
14.3875	100.009	99.9947	199.996
14.39	100.009	99.9947	199.996
14.3925	100.009	99.9947	199.996
14.395	100.009	99.9948	199.996
14.3975	100.009	99.9948	199.996
14.4	100.009	99.9948	199.996
14.4025	100.009	99.9948	199.996
14.405	100.009	99.9948	199.996
14.4075	100.009	99.9949	199.996
14.41	100.009	99.9949	199.996
14.4125	100.009	99.9949	199.996
14.415	100.009	99.9949	199.996
14.4175	100.009	99.995	199.996
14.42	100.009	99.995	199.996
14.4225	100.009	99.995	199.996
14.425	100.009	99.995	199.996
14.4275	100.009	99.995	199.996
14.43	100.009	99.9951	199.996
14.4325	100.009	99.9951	199.996
14.435	100.009	99.9951	199.996
14.4375	100.009	99.9951	199.996
14.44	100.009	99.9952	199.996
14.4425	100.009	99.9952	199.996
14.445	100.009	99.9952	199.996
14.4475	100.009	99.9952	199.996
14.45	100.009	99.9953	199.996
14.4525	100.009	99.9953	199.996
14.455	100.009	99.9953	199.996
14.4575	100.009	99.9953	199.996
14.46	100.009	99.9953	199.996
14.4625	100.009	99.9954	199.996
14.465	100.009	99.9954	199.996
14.4675	100.009	99.9954	199.996
14.47	100.009	99.9954	199.996
14.4725	100.009	99.9954	199.996
14.475	100.009	99.9955	199.996
14.4775	100.009	99.9955	199.996
14.48	100.009	99.9955	199.996
14.4825	100.009	99.9955	199.996
14.485	100.009	99.9956	199.996
14.4875	100.009	99.9956	199.996
14.49	100.009	99.9956	199.996
14.4925	100.009	99.9956	199.996
14.495	100.009	99.9956	199.996
14.4975	100.009	99.9957	199.996
14.5	100.009	99.9957	199.996
14.5025	100.009	99.9957	199.996
14.505	100.009	99.9957	199.996
14.5075	100.009	99.9958	199.996
14.51	100.009	99.9958	199.996
14.5125	100.009	99.9958	199.996
14.515	100.008	99.9958	199.996
14.5175	100.008	99.9958	199.996
14.52	100.008	99.9959	199.996
14.5225	100.008	99.9959	199.996
14.525	100.008	99.9959	199.996
14.5275	100.008	99.9959	199.996
14.53	100.008	99.9959	199.996
14.5325	100.008	99.996	199.996
14.535	100.008	99.996	199.996
14.5375	100.008	99.996	199.996
14.54	100.008	99.996	199.996
14.5425	100.008	99.996	199.996
14.545	100.008	99.9961	199.996
14.5475	100.008	99.9961	199.996
14.55	100.008	99.9961	199.996
14.5525	100.008	99.9961	199.996
14.555	100.008	99.9962	199.996
14.5575	100.008	99.9962	199.996
14.56	100.008	99.9962	199.996
14.5625	100.008	99.9962	199.996
14.565	100.008	99.9962	199.996
14.5675	100.008	99.9963	199.996
14.57	100.008	99.9963	199.996
14.5725	100.008	99.9963	199.996
14.575	100.008	99.9963	199.996
14.5775	100.008	99.9963	199.996
14.58	100.008	99.9964	199.996
14.5825	100.008	99.9964	199.996
14.585	100.008	99.9964	199.996
14.5875	100.008	99.9964	199.996
14.59	100.008	99.9964	199.996
14.5925	100.008	99.9965	199.996
14.595	100.008	99.9965	199.996
14.5975	100.008	99.9965	199.996
14.6	100.008	99.9965	199.996
14.6025	100.008	99.9965	199.996
14.605	100.008	99.9966	199.996
14.6075	100.008	99.9966	199.996
14.61	100.008	99.9966	199.996
14.6125	100.008	99.9966	199.996
14.615	100.008	99.9966	199.996
14.6175	100.008	99.9967	199.996
14.62	100.008	99.9967	199.996
14.6225	100.008	99.9967	199.996
14.625	100.008	99.9967	199.996
14.6275	100.008	99.9967	199.996
14.63	100.008	99.9967	199.996
14.6325	100.008	99.9968	199.996
14.635	100.008	99.9968	199.996
14.6375	100.008	99.9968	199.996
14.64	100.008	99.9968	199.996
14.6425	100.008	99.9968	199.996
14.645	100.008	99.9969	199.996
14.6475	100.008	99.9969	199.996
14.65	100.008	99.9969	199.996
14.6525	100.008	99.9969	199.996
14.655	100.008	99.9969	199.995
14.6575	100.008	99.997	199.995
14.66	100.008	99.997	199.995
14.6625	100.008	99.997	199.995
14.665	100.007	99.997	199.995
14.6675	100.007	99.997	199.995
14.67	100.007	99.9971	199.995
14.6725	100.007	99.9971	199.995
14.675	100.007	99.9971	199.995
14.6775	100.007	99.9971	199.995
14.68	100.007	99.9971	199.995
14.6825	100.007	99.9971	199.995
14.685	100.007	99.9972	199.995
14.6875	100.007	99.9972	199.995
14.69	100.007	99.9972	199.995
14.6925	100.007	99.9972	199.995
14.695	100.007	99.9972	199.995
14.6975	100.007	99.9973	199.995
14.7	100.007	99.9973	199.995
14.7025	100.007	99.9973	199.995
14.705	100.007	99.9973	199.995
14.7075	100.007	99.9973	199.995
14.71	100.007	99.9973	199.995
14.7125	100.007	99.9974	199.995
14.715	100.007	99.9974	199.995
14.7175	100.007	99.9974	199.995
14.72	100.007	99.9974	199.995
14.7225	100.007	99.9974	199.995
14.725	100.007	99.9975	199.995
14.7275	100.007	99.9975	199.995
14.73	100.007	99.9975	199.995
14.7325	100.007	99.9975	199.995
14.735	100.007	99.9975	199.995
14.7375	100.007	99.9975	199.995
14.74	100.007	99.9976	199.995
14.7425	100.007	99.9976	199.995
14.745	100.007	99.9976	199.995
14.7475	100.007	99.9976	199.995
14.75	100.007	99.9976	199.995
14.7525	100.007	99.9976	199.995
14.755	100.007	99.9977	199.995
14.7575	100.007	99.9977	199.995
14.76	100.007	99.9977	199.995
14.7625	100.007	99.9977	199.995
14.765	100.007	99.9977	199.995
14.7675	100.007	99.9977	199.995
14.77	100.007	99.9978	199.995
14.7725	100.007	99.9978	199.995
14.775	100.007	99.9978	199.995
14.7775	100.007	99.9978	199.995
14.78	100.007	99.9978	199.995
14.7825	100.007	99.9978	199.995
14.785	100.007	99.9979	199.995
14.7875	100.007	99.9979	199.995
14.79	100.007	99.9979	199.995
14.7925	100.007	99.9979	199.995
14.795	100.007	99.9979	199.995
14.7975	100.007	99.9979	199.995
14.8	100.007	99.998	199.995
14.8025	100.007	99.998	199.995
14.805	100.007	99.998	199.995
14.8075	100.007	99.998	199.995
14.81	100.007	99.998	199.995
14.8125	100.006	99.998	199.995
14.815	100.006	99.9981	199.995
14.8175	100.006	99.9981	199.995
14.82	100.006	99.9981	199.995
14.8225	100.006	99.9981	199.995
14.825	100.006	99.9981	199.995
14.8275	100.006	99.9981	199.995
14.83	100.006	99.9982	199.995
14.8325	100.006	99.9982	199.995
14.835	100.006	99.9982	199.995
14.8375	100.006	99.9982	199.995
14.84	100.006	99.9982	199.995
14.8425	100.006	99.9982	199.995
14.845	100.006	99.9983	199.995
14.8475	100.006	99.9983	199.995
14.85	100.006	99.9983	199.995
14.8525	100.006	99.9983	199.995
14.855	100.006	99.9983	199.995
14.8575	100.006	99.9983	199.995
14.86	100.006	99.9983	199.995
14.8625	100.006	99.9984	199.995
14.865	100.006	99.9984	199.995
14.8675	100.006	99.9984	199.995
14.87	100.006	99.9984	199.995
14.8725	100.006	99.9984	199.995
14.875	100.006	99.9984	199.995
14.8775	100.006	99.9985	199.995
14.88	100.006	99.9985	199.995
14.8825	100.006	99.9985	199.996
14.885	100.006	99.9985	199.996
14.8875	100.006	99.9985	199.996
14.89	100.006	99.9985	199.996
14.8925	100.006	99.9985	199.996
14.895	100.006	99.9986	199.996
14.8975	100.006	99.9986	199.996
14.9	100.006	99.9986	199.996
14.9025	100.006	99.9986	199.996
14.905	100.006	99.9986	199.996
14.9075	100.006	99.9986	199.996
14.91	100.006	99.9986	199.996
14.9125	100.006	99.9987	199.996
14.915	100.006	99.9987	199.996
14.9175	100.006	99.9987	199.996
14.92	100.006	99.9987	199.996
14.9225	100.006	99.9987	199.996
14.925	100.006	99.9987	199.996
14.9275	100.006	99.9987	199.996
14.93	100.006	99.9988	199.996
14.9325	100.006	99.9988	199.996
14.935	100.006	99.9988	199.996
14.9375	100.006	99.9988	199.996
14.94	100.006	99.9988	199.996
14.9425	100.006	99.9988	199.996
14.945	100.006	99.9988	199.996
14.9475	100.006	99.9989	199.996
14.95	100.006	99.9989	199.996
14.9525	100.006	99.9989	199.996
14.955	100.006	99.9989	199.996
14.9575	100.006	99.9989	199.996
14.96	100.005	99.9989	199.996
14.9625	100.005	99.9989	199.996
14.965	100.005	99.999	199.996
14.9675	100.005	99.999	199.996
14.97	100.005	99.999	199.996
14.9725	100.005	99.999	199.996
14.975	100.005	99.999	199.996
14.9775	100.005	99.999	199.996
14.98	100.005	99.999	199.996
14.9825	100.005	99.9991	199.996
14.985	100.005	99.9991	199.996
14.9875	100.005	99.9991	199.996
14.99	100.005	99.9991	199.996
14.9925	100.005	99.9991	199.996
14.995	100.005	99.9991	199.996
14.9975	100.005	99.9991	199.996
15	100.005	99.9991	199.996
